"Global_Index", "x_coord", "y_coord", "Pressure", "Pressure_Coefficient", "Mach_Number"
149, 4.960500001910000e-01, 4.664944416877455e-02, 7.823560606297273e-01, -4.858123646657873e-01, 1.022157718334731e+00
150, 5.118399858470000e-01, 4.624998411459898e-02, 7.886880530780165e-01, -4.716784529508561e-01, 1.015344043433401e+00
151, 5.276100039480000e-01, 4.577112703421383e-02, 7.948943030006228e-01, -4.578252165164670e-01, 1.008726659730870e+00
152, 5.433599948880000e-01, 4.521118431294203e-02, 8.013786581609361e-01, -4.433512094621962e-01, 1.001849824905760e+00
153, 5.590599775310000e-01, 4.456979226530158e-02, 8.086134249539131e-01, -4.272021764421583e-01, 9.942016009506981e-01
154, 5.747100114820000e-01, 4.384582982656957e-02, 8.166969727639088e-01, -4.091585429377035e-01, 9.856570280569426e-01
155, 5.902799963950000e-01, 4.303993960242117e-02, 8.253293268057075e-01, -3.898898955229744e-01, 9.765418853968616e-01
156, 6.057599782940000e-01, 4.215239302294880e-02, 8.342035301870082e-01, -3.700814058325710e-01, 9.672246524860795e-01
157, 6.211299896240000e-01, 4.118456946096033e-02, 8.433331265791466e-01, -3.497028424572620e-01, 9.576569569717466e-01
158, 6.363800168040000e-01, 4.013786352431253e-02, 8.529325722392923e-01, -3.282755083944368e-01, 9.476465588260663e-01
159, 6.514999866490000e-01, 3.901422334706146e-02, 8.630783330725664e-01, -3.056287208201642e-01, 9.370953590369200e-01
160, 6.664699912070000e-01, 3.781700393887250e-02, 8.737006343731207e-01, -2.819182268457127e-01, 9.260938661241720e-01
161, 6.812700033190000e-01, 3.655041983064564e-02, 8.846898161283541e-01, -2.573888032849240e-01, 9.147458216264595e-01
162, 6.958900094030001e-01, 3.521861785162600e-02, 8.959793443602786e-01, -2.321889634815210e-01, 9.031293258035099e-01
163, 7.103199958800001e-01, 3.382640842845687e-02, 9.075557827517595e-01, -2.063486992148225e-01, 8.912555382950716e-01
164, 7.245299816130000e-01, 3.238135370974637e-02, 9.193813476571671e-01, -1.799523489795378e-01, 8.791608345883922e-01
165, 7.385200262070000e-01, 3.088879611388875e-02, 9.314385531380338e-01, -1.530389438883174e-01, 8.668635957617423e-01
166, 7.522799968720000e-01, 2.935567827526925e-02, 9.436635106675304e-01, -1.257510922599768e-01, 8.544176880598230e-01
167, 7.657799720760000e-01, 2.779190172691307e-02, 9.560212766990540e-01, -9.816679308246873e-02, 8.418837155299794e-01
168, 7.790099978450000e-01, 2.620584156806295e-02, 9.684363913246438e-01, -7.045448365034875e-02, 8.292659194494342e-01
169, 7.919700145720000e-01, 2.460514326716687e-02, 9.808812178704601e-01, -4.267585296772294e-02, 8.166649499264899e-01
170, 8.046399950980000e-01, 2.300032998835814e-02, 9.932503214674302e-01, -1.506624672448617e-02, 8.041543069015854e-01
171, 8.170099854470000e-01, 2.140104074547307e-02, 1.005438938097238e+00, 1.214048682419184e-02, 7.918093958356923e-01
172, 8.290500044819999e-01, 1.981962755402338e-02, 1.017339014558986e+00, 3.870315749773762e-02, 7.797769052376217e-01
173, 8.407700061800000e-01, 1.826288251951480e-02, 1.028833445073571e+00, 6.436036846779339e-02, 7.681587766771721e-01
174, 8.521599769590000e-01, 1.673924868072400e-02, 1.039850937004593e+00, 8.895298438525315e-02, 7.570247420208643e-01
175, 8.631799817090000e-01, 1.525956527154455e-02, 1.050358049652166e+00, 1.124063608307268e-01, 7.464032105175242e-01
176, 8.738499879840000e-01, 1.382431436186139e-02, 1.060424800856926e+00, 1.348767876270678e-01, 7.362005600201849e-01
177, 8.841500282290000e-01, 1.243671706612560e-02, 1.070300804548144e+00, 1.569214387235360e-01, 7.261699376873080e-01
178, 8.940600156780000e-01, 1.109797694774876e-02, 1.080375567374585e+00, 1.794097486039853e-01, 7.158633683805999e-01
179, 9.035800099370001e-01, 9.806405041647415e-03, 1.091199738231033e+00, 2.035708442656987e-01, 7.047373237384081e-01
180, 9.126999974250000e-01, 8.564707075306204e-03, 1.103222749663418e+00, 2.304079233558446e-01, 6.922804212808663e-01
181, 9.214000105860000e-01, 7.383828452060981e-03, 1.116572331137512e+00, 2.602060962890902e-01, 6.783971795082659e-01
182, 9.296900033950000e-01, 6.280330153437897e-03, 1.130693706103260e+00, 2.917270225519207e-01, 6.636673326595078e-01
31, 7.657799720760000e-01, -3.607085032437248e-02, 9.121474624011090e-01, -1.960994142832388e-01, 8.878240932643501e-01
32, 7.522799968720000e-01, -3.753636632408240e-02, 9.052565538986070e-01, -2.114809064763236e-01, 8.948624322349087e-01
33, 7.385200262070000e-01, -3.898149860444777e-02, 8.983511345528932e-01, -2.268947889444349e-01, 9.019307766179043e-01
34, 7.245299816130000e-01, -4.040037576564374e-02, 8.915013885924626e-01, -2.421844004632530e-01, 9.089567689013697e-01
35, 7.103199958800001e-01, -4.178936982256762e-02, 8.847732411262991e-01, -2.572025867716539e-01, 9.158711361217023e-01
36, 6.958900094030001e-01, -4.314591877240141e-02, 8.781872658544851e-01, -2.719034244319528e-01, 9.226630966994869e-01
37, 6.812700033190000e-01, -4.446482637627500e-02, 8.717551938790337e-01, -2.862607279485856e-01, 9.293033960077928e-01
38, 6.664699912070000e-01, -4.574309210793671e-02, 8.654894234367493e-01, -3.002468226858275e-01, 9.357842935720750e-01
39, 6.514999866490000e-01, -4.697794011220104e-02, 8.594071081862907e-01, -3.138234192270296e-01, 9.420978047317662e-01
40, 6.363800168040000e-01, -4.816605985060321e-02, 8.535145268729613e-01, -3.269765025157115e-01, 9.482170217803713e-01
41, 6.211299896240000e-01, -4.930453941194040e-02, 8.478152847057583e-01, -3.396980252103610e-01, 9.541620382520117e-01
42, 6.057599782940000e-01, -5.039152456008733e-02, 8.422953286946624e-01, -3.520193555922714e-01, 9.599195693452167e-01
43, 5.902799963950000e-01, -5.142537742027555e-02, 8.369654761862245e-01, -3.639163477986060e-01, 9.655045284679169e-01
44, 5.747100114820000e-01, -5.240404536755234e-02, 8.318563271994569e-01, -3.753206982154980e-01, 9.708529125989973e-01
45, 5.590599775310000e-01, -5.332636870951764e-02, 8.270235760254178e-01, -3.861080892289782e-01, 9.759356485546292e-01
46, 5.433599948880000e-01, -5.419025417024636e-02, 8.224618084159704e-01, -3.962906062143518e-01, 9.807310243540540e-01
47, 5.276100039480000e-01, -5.499550864937567e-02, 8.180713078204248e-01, -4.060908307579804e-01, 9.853800050812944e-01
48, 5.118399858470000e-01, -5.574048988447425e-02, 8.136694781003271e-01, -4.159163435260556e-01, 9.900423747332756e-01
49, 4.960500001910000e-01, -5.642513768695793e-02, 8.092309400004656e-01, -4.258237946418179e-01, 9.947792420307016e-01
50, 4.802699983120000e-01, -5.704811209859538e-02, 8.050416115791265e-01, -4.351749741537356e-01, 9.992347840106082e-01
51, 4.645099937920000e-01, -5.760901639903771e-02, 8.015601422339481e-01, -4.429461110849373e-01, 1.002932291466027e+00
52, 4.487800002100000e-01, -5.810738461844379e-02, 7.989433550413939e-01, -4.487871539254600e-01, 1.005673306098444e+00
53, 4.331099987030000e-01, -5.854213758440652e-02, 7.967892117028970e-01, -4.535955095917479e-01, 1.007928090474592e+00
54, 4.174999892710000e-01, -5.891304283753566e-02, 7.942039278721381e-01, -4.593662324282631e-01, 1.010680239265386e+00
55, 4.019699990750000e-01, -5.921920927216538e-02, 7.901834520216452e-01, -4.683405088802563e-01, 1.015067750541429e+00
56, 3.865399956700000e-01, -5.945974975951156e-02, 7.840866455931935e-01, -4.819494518009073e-01, 1.021778673291081e+00
57, 3.712300062180000e-01, -5.963377392431977e-02, 7.761271779923425e-01, -4.997161205528068e-01, 1.030588232136018e+00
58, 3.560400009160000e-01, -5.974048861217866e-02, 7.675070061710506e-01, -5.189575755110477e-01, 1.040099582229522e+00
59, 3.409900069240000e-01, -5.977874086306930e-02, 7.598694762959664e-01, -5.360056332679323e-01, 1.048499017413377e+00
60, 3.261100053790000e-01, -5.974743020598087e-02, 7.543457305730317e-01, -5.483354228280544e-01, 1.054544338825354e+00
61, 3.113999962810000e-01, -5.964539834993543e-02, 7.511667019088073e-01, -5.554314689535551e-01, 1.057969712358607e+00
62, 2.968699932100000e-01, -5.947128919230140e-02, 7.499479502273548e-01, -5.581518968139402e-01, 1.059249493095695e+00
63, 2.825500071050000e-01, -5.922400650811319e-02, 7.501348395479963e-01, -5.577347331517940e-01, 1.058971532339226e+00
64, 2.684499919410000e-01, -5.890226488168868e-02, 7.513120823771825e-01, -5.551069589795034e-01, 1.057636784402830e+00
65, 2.545700073240000e-01, -5.850438320855549e-02, 7.532426602741136e-01, -5.507976333167108e-01, 1.055456962551701e+00
66, 2.409400045870000e-01, -5.802950210498311e-02, 7.558494608326566e-01, -5.449788820699630e-01, 1.052560985446326e+00
67, 2.275699973110000e-01, -5.747633784541779e-02, 7.590417698203917e-01, -5.378531923651970e-01, 1.049009299647540e+00
68, 2.144699990750000e-01, -5.684360138514580e-02, 7.626959058901128e-01, -5.296966386381410e-01, 1.044979508167701e+00
69, 2.016600072380000e-01, -5.613061178793664e-02, 7.666804387900958e-01, -5.208025919863932e-01, 1.040582978638517e+00
70, 1.891400069000000e-01, -5.533569022175150e-02, 7.710107862404180e-01, -5.111366378562099e-01, 1.035834942762180e+00
71, 1.769299954180000e-01, -5.445841759608840e-02, 7.759143951266335e-01, -5.001910823066217e-01, 1.030454760789990e+00
72, 1.650400012730000e-01, -5.349795512760129e-02, 7.817086368787430e-01, -4.872575069670915e-01, 1.024126680451133e+00
73, 1.534900069240000e-01, -5.245452834380979e-02, 7.884994464482574e-01, -4.720994498922825e-01, 1.016715909891764e+00
74, 1.422899961470000e-01, -5.132785650348216e-02, 7.961771767300349e-01, -4.549616590847436e-01, 1.008396470828253e+00
75, 1.314399987460000e-01, -5.011668002381470e-02, 8.045802701316632e-01, -4.362047541703946e-01, 9.992871558232795e-01
76, 1.209499984980000e-01, -4.882074998236963e-02, 8.137689592531268e-01, -4.156942873814135e-01, 9.894165914592479e-01
77, 1.108499988910000e-01, -4.744285630940522e-02, 8.239875704391987e-01, -3.928848874125029e-01, 9.785338242583521e-01
78, 1.011300012470000e-01, -4.598082333703964e-02, 8.353589999030504e-01, -3.675022323592625e-01, 9.664276722344290e-01
79, 9.181000292300000e-02, -4.443676617551959e-02, 8.479494165648360e-01, -3.393986237392053e-01, 9.530418175376056e-01
80, 8.290000259900000e-02, -4.281180465233730e-02, 8.618924851172254e-01, -3.082757028633362e-01, 9.383337677686624e-01
81, 7.440000027400000e-02, -4.110529554808846e-02, 8.773062022388278e-01, -2.738700842883308e-01, 9.221435322329002e-01
82, 6.633000075800000e-02, -3.932077950385946e-02, 8.944039811663437e-01, -2.357053991822686e-01, 9.042998398044432e-01
83, 5.869000032500000e-02, -3.745795677354686e-02, 9.133854393979107e-01, -1.933360727725207e-01, 8.845796346595191e-01
84, 5.149000138000000e-02, -3.551884739470797e-02, 9.345490676907861e-01, -1.460958310473526e-01, 8.626739250470395e-01
113, 4.473999887700000e-02, 2.392059817892853e-02, 6.845648440104725e-01, -7.040963303337668e-01, 1.128363408632247e+00
114, 5.149000138000000e-02, 2.525658683884801e-02, 6.833045261565334e-01, -7.069095398291666e-01, 1.130139140808456e+00
115, 5.869000032500000e-02, 2.655510600920746e-02, 6.831779312876103e-01, -7.071921176615842e-01, 1.130570205176877e+00
116, 6.633000075800000e-02, 2.781688324807141e-02, 6.840502541246042e-01, -7.052449684718657e-01, 1.129734030139308e+00
117, 7.440000027400000e-02, 2.904258279092908e-02, 6.856158852291804e-01, -7.017502561848652e-01, 1.128011850460054e+00
118, 8.290000259900000e-02, 3.023411788197902e-02, 6.874360196168142e-01, -6.976874562124683e-01, 1.126016236012953e+00
119, 9.181000292300000e-02, 3.139038766124654e-02, 6.891020922331953e-01, -6.939685441223320e-01, 1.124211341021744e+00
120, 1.011300012470000e-01, 3.251289968597331e-02, 6.906256979738700e-01, -6.905676384511831e-01, 1.122610350205357e+00
121, 1.108499988910000e-01, 3.360162251735801e-02, 6.924156932373332e-01, -6.865721133095241e-01, 1.120740545136893e+00
122, 1.209499984980000e-01, 3.465542436439939e-02, 6.948240932191868e-01, -6.811962204928866e-01, 1.118126358215178e+00
123, 1.314399987460000e-01, 3.567616218402210e-02, 6.976867508933625e-01, -6.748063596130301e-01, 1.114891875692392e+00
124, 1.422899961470000e-01, 3.666154734203479e-02, 7.004696833276380e-01, -6.685944568579508e-01, 1.111737469654792e+00
125, 1.534900069240000e-01, 3.761131614375553e-02, 7.028732961052399e-01, -6.632292497650897e-01, 1.109034995962490e+00
126, 1.650400012730000e-01, 3.852583104367834e-02, 7.050052357322528e-01, -6.584704559547928e-01, 1.106681614488527e+00
127, 1.769299954180000e-01, 3.940440629778526e-02, 7.070649086906043e-01, -6.538729716727582e-01, 1.104410085564228e+00
128, 1.891400069000000e-01, 4.024557398778332e-02, 7.091781098747557e-01, -6.491560047438488e-01, 1.102090899451581e+00
129, 2.016600072380000e-01, 4.104854498982830e-02, 7.114430445360329e-01, -6.441003470177837e-01, 1.099588184803877e+00
130, 2.144699990750000e-01, 4.181181925572130e-02, 7.139240053332762e-01, -6.385624880953658e-01, 1.096847945942043e+00
131, 2.275699973110000e-01, 4.253498836549685e-02, 7.166074800171258e-01, -6.325725892474870e-01, 1.093868331901678e+00
132, 2.409400045870000e-01, 4.321634385162450e-02, 7.193950733246522e-01, -6.263502827574727e-01, 1.090778932842492e+00
133, 2.545700073240000e-01, 4.385463761198963e-02, 7.221637622038075e-01, -6.201701736522154e-01, 1.087704807684546e+00
134, 2.684499919410000e-01, 4.444846198014571e-02, 7.248511038518395e-01, -6.141716431878583e-01, 1.084735239687165e+00
135, 2.825500071050000e-01, 4.499551267884973e-02, 7.274288421183780e-01, -6.084177631286206e-01, 1.081888019370733e+00
136, 2.968699932100000e-01, 4.549461714541575e-02, 7.298798554731993e-01, -6.029467511758944e-01, 1.079193341130795e+00
137, 3.113999962810000e-01, 4.594399142138123e-02, 7.321565374829928e-01, -5.978648716897482e-01, 1.076698386446118e+00
138, 3.261100053790000e-01, 4.634118155677212e-02, 7.342668249236237e-01, -5.931544086526257e-01, 1.074402683258582e+00
139, 3.409900069240000e-01, 4.668430626328712e-02, 7.363591078181074e-01, -5.884841343345817e-01, 1.072137527415913e+00
140, 3.560400009160000e-01, 4.697149772534145e-02, 7.387000218260471e-01, -5.832588798525734e-01, 1.069621988144116e+00
141, 3.712300062180000e-01, 4.720018521197167e-02, 7.415033499267397e-01, -5.770014510563846e-01, 1.066581807569166e+00
142, 3.865399956700000e-01, 4.736807161454669e-02, 7.448309658361675e-01, -5.695737369728404e-01, 1.062958512319672e+00
143, 4.019699990750000e-01, 4.747299847484654e-02, 7.486389154060887e-01, -5.610738495399805e-01, 1.058802790754456e+00
144, 4.174999892710000e-01, 4.751252408747458e-02, 7.529353331672497e-01, -5.514836313231034e-01, 1.054116029414263e+00
145, 4.331099987030000e-01, 4.748429370157341e-02, 7.578064505563707e-01, -5.406106014366725e-01, 1.048811642509897e+00
146, 4.487800002100000e-01, 4.738607208646538e-02, 7.633045984435372e-01, -5.283379499028189e-01, 1.042822011242182e+00
147, 4.645099937920000e-01, 4.721551805080675e-02, 7.693823133130236e-01, -5.147716220691436e-01, 1.036227587006327e+00
148, 4.802699983120000e-01, 4.697064684630635e-02, 7.758309445072041e-01, -5.003773560107051e-01, 1.029214681449615e+00
85, 4.473999887700000e-02, -3.350597472898146e-02, 9.583314302789594e-01, -9.301020027017992e-02, 8.381088418623217e-01
86, 3.844000026600000e-02, -3.141902929371231e-02, 9.851188239990150e-01, -3.321691071648447e-02, 8.104420755310379e-01
87, 3.260000050100000e-02, -2.926085641348180e-02, 1.015448505219142e+00, 3.448327057844193e-02, 7.791727908683641e-01
88, 2.723000012300000e-02, -2.703514576298846e-02, 1.050084664849162e+00, 1.117961268954508e-01, 7.434589148300942e-01
89, 2.232000045500000e-02, -2.473686362595190e-02, 1.089622384777759e+00, 2.000499660217837e-01, 7.024261450591964e-01
90, 1.789999939500000e-02, -2.238000877099474e-02, 1.134893349936825e+00, 3.011012275375563e-01, 6.550323044846477e-01
91, 1.394999958600000e-02, -1.995375956144506e-02, 1.186697387185938e+00, 4.167352392543251e-01, 5.998684913756759e-01
92, 1.049000024800000e-02, -1.746937956830984e-02, 1.245070270601548e+00, 5.470318540213129e-01, 5.353360884268180e-01
93, 7.519999985000000e-03, -1.492777460029198e-02, 1.309377641027231e+00, 6.905750915786404e-01, 4.598654714760522e-01
94, 5.040000193000000e-03, -1.232912427902215e-02, 1.377181868039776e+00, 8.419238125887849e-01, 3.712564751321648e-01
95, 3.049999941000000e-03, -9.671894299813605e-03, 1.443416908513958e+00, 9.897698850757993e-01, 2.683052644581489e-01
96, 1.560000004000000e-03, -6.971317759309122e-03, 1.495270116957927e+00, 1.105513653923944e+00, 1.523973476574608e-01
97, 5.600000150000000e-04, -4.206242643878750e-03, 1.523658054113160e+00, 1.168879585074018e+00, 2.330947300426658e-02
98, 5.999999800000000e-05, -1.384013438544352e-03, 1.507270018778126e+00, 1.132299149058316e+00, 1.112633112373813e-01
99, 0.000000000000000e+00, 0.000000000000000e+00, 1.462206699403915e+00, 1.031711382598025e+00, 2.150647440971911e-01
100, 5.999999800000000e-05, 1.263714880765236e-03, 1.420636554391413e+00, 9.389208803379759e-01, 3.139633103451767e-01
101, 5.600000150000000e-04, 3.624949860813950e-03, 1.321064360357228e+00, 7.166615186545260e-01, 4.617197496464308e-01
102, 1.560000004000000e-03, 5.788669226729522e-03, 1.149897811210031e+00, 3.345933285938184e-01, 6.265141413989653e-01
103, 3.049999941000000e-03, 7.806634223175665e-03, 1.012953358531438e+00, 2.891374672195952e-02, 7.607752316969572e-01
104, 5.040000193000000e-03, 9.723868621927730e-03, 9.079106563121178e-01, -2.055565707318800e-01, 8.672632596913575e-01
105, 7.519999985000000e-03, 1.154812685961100e-02, 8.317308272527290e-01, -3.756008320251586e-01, 9.493536338657420e-01
106, 1.049000024800000e-02, 1.329439521896480e-02, 7.800217820666415e-01, -4.910228078869609e-01, 1.008909251432536e+00
107, 1.394999958600000e-02, 1.497318808143756e-02, 7.460612432506935e-01, -5.668275820297022e-01, 1.050169515471145e+00
108, 1.789999939500000e-02, 1.659242105379315e-02, 7.233631288429263e-01, -6.174930159756109e-01, 1.078498797498740e+00
109, 2.232000045500000e-02, 1.815171149876682e-02, 7.080887020809647e-01, -6.515877185692751e-01, 1.097882223002286e+00
110, 2.723000012300000e-02, 1.966420510177055e-02, 6.978499883852050e-01, -6.744419902115961e-01, 1.111077304281933e+00
111, 3.260000050100000e-02, 2.112577735390554e-02, 6.911053362401682e-01, -6.894970173210531e-01, 1.119727094317058e+00
112, 3.844000026600000e-02, 2.254412259666133e-02, 6.870006861175524e-01, -6.986591827733206e-01, 1.125096428613038e+00
199, 1.000000000000000e+00, 0.000000000000000e+00, 1.279255349144724e+00, 6.233378329123310e-01, 4.554091426581431e-01
0, 9.997500181200000e-01, -3.633242775859523e-05, 1.290548605007258e+00, 6.485459933197716e-01, 4.935188177716452e-01
1, 9.990000128750000e-01, -1.454723244345388e-04, 1.264205645261831e+00, 5.897447438880153e-01, 5.210712145461188e-01
2, 9.977599978450000e-01, -3.275073377386921e-04, 1.248337657238712e+00, 5.543251277649816e-01, 5.398374114206883e-01
3, 9.960200190539999e-01, -5.899269467436695e-04, 1.238434586649095e+00, 5.322200594845873e-01, 5.517340173922932e-01
4, 9.937800168990000e-01, -9.470940925317945e-04, 1.231529704068511e+00, 5.168073751529256e-01, 5.596489964371135e-01
5, 9.910500049590000e-01, -1.422094408236005e-03, 1.224773873776275e+00, 5.017273968220434e-01, 5.674082467725892e-01
6, 9.878399968150000e-01, -2.045513301548879e-03, 1.214689295874362e+00, 4.792171782909877e-01, 5.780733407090105e-01
7, 9.841300249100000e-01, -2.853667183579676e-03, 1.198773893968645e+00, 4.436917276085816e-01, 5.946603026900154e-01
183, 9.375399947170000e-01, 5.285174297730810e-03, 1.144297678282005e+00, 3.220930318794752e-01, 6.495165360306457e-01
184, 9.449599981310000e-01, 4.427502672110363e-03, 1.155521308266249e+00, 3.471457773800191e-01, 6.379795739907451e-01
185, 9.519400000570000e-01, 3.732230355391525e-03, 1.162388411649966e+00, 3.624741331472457e-01, 6.311805527152694e-01
186, 9.584699869160000e-01, 3.205473572397740e-03, 1.163329300156818e+00, 3.645743307071823e-01, 6.306948654596070e-01
187, 9.645400047300000e-01, 2.827057260776884e-03, 1.157880382323460e+00, 3.524115676862957e-01, 6.368257846309527e-01
