"PointID"	"x"	"y"	"Conservative_1"	"Conservative_2"	"Conservative_3"	"Conservative_4"	"Pressure"	"Temperature"	"Pressure_Coefficient"	"Mach"
0	9.997500181200000e-01	-3.633243151715535e-05	1.199829344859525e+00	7.195674028859184e-01	1.010192396915226e-01	3.446401252942886e+00	1.290550962763064e+00	1.075612101247749e+00	6.485512561675526e-01	4.935126353935825e-01	
1	9.990000128750000e-01	-1.454725619072009e-04	1.181609267682363e+00	7.459357909802730e-01	1.066660518752814e-01	3.400803424597034e+00	1.264215513796956e+00	1.069909951092902e+00	5.897667718682063e-01	5.210571411395483e-01	
2	9.977599978450000e-01	-3.275099454429469e-04	1.171191284391278e+00	7.640170264260790e-01	1.128622479097838e-01	3.375531258346892e+00	1.248357253624837e+00	1.065886734525750e+00	5.543688696982976e-01	5.398128875157922e-01	
3	9.960200190539999e-01	-5.899410548020397e-04	1.164759503307219e+00	7.748151554486049e-01	1.197617074566667e-01	3.360030136859714e+00	1.238465563826154e+00	1.063280067953646e+00	5.322892049690946e-01	5.516973732176959e-01	
4	9.937800168990000e-01	-9.471452163933791e-04	1.160194126769357e+00	7.806949057434096e-01	1.301821998279049e-01	3.348899236166802e+00	1.231572259165684e+00	1.061522576911404e+00	5.169023642091158e-01	5.595999264609746e-01	
5	9.910500049590000e-01	-1.422236304454333e-03	1.155735625664825e+00	7.854571432051136e-01	1.448092463804648e-01	3.338042851280189e+00	1.224826385484123e+00	1.059780764982090e+00	5.018446104556308e-01	5.673487070538165e-01	
6	9.878399968150000e-01	-2.045837756207048e-03	1.148855266604449e+00	7.912541840976229e-01	1.632961186906419e-01	3.320957197233078e+00	1.214748233136558e+00	1.057355324423817e+00	4.793487346798170e-01	5.780071723591521e-01	
7	9.841300249100000e-01	-2.854308623233112e-03	1.137938362503407e+00	8.009145165542565e-01	1.837283848216446e-01	3.293771110953172e+00	1.198834146288170e+00	1.053514132040329e+00	4.438262193932356e-01	5.945929670467588e-01	
8	9.799500107769999e-01	-3.859992909699616e-03	1.121753617231937e+00	8.159248278060375e-01	2.029558432961560e-01	3.253390492528820e+00	1.175317040444726e+00	1.047749721855110e+00	3.913326795641194e-01	6.188654135930468e-01	
9	9.752799868580000e-01	-5.060059188583092e-03	1.100390283432268e+00	8.363389423815848e-01	2.170536467047511e-01	3.200041010840402e+00	1.144323619088528e+00	1.039925230454804e+00	3.221509354654647e-01	6.507661156234636e-01	
10	9.701499938960000e-01	-6.407663991621093e-03	1.075088064907954e+00	8.604406020231631e-01	2.228365288024796e-01	3.136741614877905e+00	1.107729309234172e+00	1.030361460973909e+00	2.404672081119911e-01	6.883583311262204e-01	
11	9.645400047300000e-01	-7.844288374078559e-03	1.048458729235330e+00	8.849004877114990e-01	2.187255137451252e-01	3.069882211481863e+00	1.069455520729675e+00	1.020026340483291e+00	1.550346444858826e-01	7.275295582976598e-01	
12	9.584699869160000e-01	-9.294533404431843e-03	1.024870437769916e+00	9.060719419766687e-01	2.056856875915817e-01	3.010482462140319e+00	1.035728184955010e+00	1.010594263220940e+00	7.975041284600536e-02	7.621714422512216e-01	
13	9.519400000570000e-01	-1.070299303746550e-02	1.008317463816733e+00	9.215714389237840e-01	1.875129234231979e-01	2.968779287362987e+00	1.012079860349939e+00	1.003731361072499e+00	2.696397399540059e-02	7.868062846767868e-01	
14	9.449599981310000e-01	-1.204168822425069e-02	9.999312167765717e-01	9.308086380088256e-01	1.689358398675861e-01	2.947679416378101e+00	1.000070646560488e+00	1.000139439375006e+00	1.576932153741257e-04	7.995277067266960e-01	
15	9.375399947170000e-01	-1.331501002659976e-02	9.978660992441362e-01	9.347785441047045e-01	1.536255291378073e-01	2.942473640124359e+00	9.971232935653873e-01	9.992556058580291e-01	-6.421219720117602e-03	8.026409030667201e-01	
16	9.296900033950000e-01	-1.455027835678276e-02	9.989719164169997e-01	9.355369613975131e-01	1.432217964146054e-01	2.945211050415418e+00	9.987516732913869e-01	9.997795302130189e-01	-2.786443546011337e-03	8.007962388849804e-01	
17	9.214000105860000e-01	-1.578579043981237e-02	1.000412070757366e+00	9.351791988069275e-01	1.374842171384167e-01	2.948762349296923e+00	1.000886134536434e+00	1.000473868511711e+00	1.977978875969598e-03	7.983479930090953e-01	
18	9.126999974250000e-01	-1.704880519705830e-02	1.000436172670506e+00	9.351651490032969e-01	1.350605330299078e-01	2.948729165882025e+00	1.001014472528528e+00	1.000578047729401e+00	2.264447608322269e-03	7.979803011993939e-01	
19	9.035800099370001e-01	-1.836035765769967e-02	9.984435790091761e-01	9.361067713460374e-01	1.343177145713760e-01	2.943587920965043e+00	9.982889142341115e-01	9.998450941261821e-01	-3.819387870286876e-03	8.005652337197496e-01	
20	8.940600156780000e-01	-1.972408568919689e-02	9.946550844026963e-01	9.380576506708875e-01	1.339592725931997e-01	2.933903014247488e+00	9.930167623485480e-01	9.983528741974592e-01	-1.558758404341972e-02	8.058139061574536e-01	
21	8.841500282290000e-01	-2.113536755707854e-02	9.896283996627695e-01	9.407165996559783e-01	1.332214608125637e-01	2.921075397061662e+00	9.859989192205979e-01	9.963324815219448e-01	-3.125241245402254e-02	8.128911014476637e-01	
22	8.738499879840000e-01	-2.258598785742453e-02	9.839493339427969e-01	9.437077469289172e-01	1.318189454013734e-01	2.906576836772893e+00	9.780764056072544e-01	9.940312695654676e-01	-4.893659462666430e-02	8.209122029963484e-01	
23	8.631799817090000e-01	-2.406383810829724e-02	9.780898718981358e-01	9.467406613741604e-01	1.297795914746129e-01	2.891602296015530e+00	9.699176635195480e-01	9.916447265088962e-01	-6.714807250100893e-02	8.291875156701392e-01	
24	8.521599769590000e-01	-2.555825767340796e-02	9.723278105217708e-01	9.496287322609110e-01	1.272719875127842e-01	2.876853543228467e+00	9.619176732809576e-01	9.892935930370779e-01	-8.500519356929115e-02	8.372985412713621e-01	
25	8.407700061800000e-01	-2.706609128243542e-02	9.667738355661361e-01	9.523063016865244e-01	1.244958654963496e-01	2.862615312452385e+00	9.542286909908401e-01	9.870237028415758e-01	-1.021681004668749e-01	8.450915802640562e-01	
26	8.290500044819999e-01	-2.857809611103374e-02	9.614190730989010e-01	9.547685727708396e-01	1.215848929612684e-01	2.848865231016235e+00	9.468380549507041e-01	9.848338580373716e-01	-1.186650559136070e-01	8.525758885081891e-01	
27	8.170099854470000e-01	-3.009043244830337e-02	9.562166926383528e-01	9.570576665287600e-01	1.186282129639096e-01	2.835491038602349e+00	9.396731369555198e-01	9.826989469958043e-01	-1.346581764385719e-01	8.598414335262238e-01	
28	8.046399950980000e-01	-3.160228153646973e-02	9.511018891105031e-01	9.591840903450891e-01	1.156515430595028e-01	2.822321715034602e+00	9.326491056092363e-01	9.805985208182857e-01	-1.503368178365261e-01	8.669606894571467e-01	
29	7.919700145720000e-01	-3.310799112203727e-02	9.460431697653545e-01	9.611802017904424e-01	1.126424519977633e-01	2.809280837062756e+00	9.257180503701388e-01	9.785156533604521e-01	-1.658079232809403e-01	8.739929815085321e-01	
30	7.790099978450000e-01	-3.460430026422596e-02	9.410244694244700e-01	9.630810463546980e-01	1.095895567566438e-01	2.796334557917668e+00	9.188503923265500e-01	9.764362375066808e-01	-1.811375171282367e-01	8.809871963062180e-01	
31	7.657799720760000e-01	-3.608659175711595e-02	9.360019144312877e-01	9.648788107860965e-01	1.064722313311749e-01	2.783362431054819e+00	9.119933638365566e-01	9.743498915711959e-01	-1.964433842934004e-01	8.879790037131639e-01	
32	7.522799968720000e-01	-3.755230711809145e-02	9.309414643800965e-01	9.665878881603085e-01	1.032790235936947e-01	2.770277457561016e+00	9.050995718006278e-01	9.722411198037287e-01	-2.118313129450272e-01	8.950205968172026e-01	
33	7.385200262070000e-01	-3.899759755428575e-02	9.258596223901046e-01	9.682058899181133e-01	1.000024477401669e-01	2.757122756289023e+00	8.981910502764630e-01	9.701158021750478e-01	-2.272521199186095e-01	9.020924352330442e-01	
34	7.245299816130000e-01	-4.041658963697935e-02	9.208078190962889e-01	9.697201819785861e-01	9.662847083796214e-02	2.744030954402877e+00	8.913382226982691e-01	9.679959316299659e-01	-2.425486100485064e-01	9.091219251643653e-01	
35	7.103199958800001e-01	-4.180565376977238e-02	9.158345961510257e-01	9.711186794473265e-01	9.317199943050179e-02	2.731127526166782e+00	8.846072546074508e-01	9.659028587969776e-01	-2.575730923940830e-01	9.160395545128117e-01	
36	6.958900094030001e-01	-4.316222666630532e-02	9.109587358090523e-01	9.724158777926759e-01	8.962947713464831e-02	2.718465961355972e+00	8.780188149547753e-01	9.638403809531265e-01	-2.722794309045194e-01	9.228344080938956e-01	
37	6.812700033190000e-01	-4.448111128587353e-02	9.061847926350083e-01	9.735929494938439e-01	8.601944490486865e-02	2.706052359684590e+00	8.715847912546577e-01	9.618179408200612e-01	-2.866410909494247e-01	9.294771205056286e-01	
38	6.664699912070000e-01	-4.575930709897124e-02	9.015242742095306e-01	9.746599367366144e-01	8.234829326500617e-02	2.693919611944740e+00	8.653177121850787e-01	9.598385056728527e-01	-3.006301067297351e-01	9.359597500087050e-01	
39	6.514999866490000e-01	-4.699403903600614e-02	8.969937396195856e-01	9.756322666234570e-01	7.862803898643612e-02	2.682115811009660e+00	8.592348696354098e-01	9.579050908424522e-01	-3.142078802781030e-01	9.422742140409197e-01	
40	6.363800168040000e-01	-4.818199834844050e-02	8.925929857107495e-01	9.764908366048776e-01	7.487195631878790e-02	2.670633851360897e+00	8.533425611459362e-01	9.560265146677587e-01	-3.273603545849638e-01	9.483935299806754e-01	
41	6.211299896240000e-01	-4.932027596907702e-02	8.883326478934280e-01	9.772706505908865e-01	7.108696351046455e-02	2.659512000294872e+00	8.476444950420834e-01	9.541971659514807e-01	-3.400792521382067e-01	9.543377071122456e-01	
42	6.057599782940000e-01	-5.040702141235943e-02	8.841952256469942e-01	9.779453129731160e-01	6.729161912446872e-02	2.648695160973447e+00	8.421266991482123e-01	9.524216764821378e-01	-3.523957608298834e-01	9.600933293049685e-01	
43	5.902799963950000e-01	-5.144060153107617e-02	8.801975783988312e-01	9.785519530548120e-01	6.348747112665833e-02	2.638238731901792e+00	8.368003258990481e-01	9.506960101177204e-01	-3.642849868324820e-01	9.656749846993330e-01	
44	5.747100114820000e-01	-5.241896958830001e-02	8.763547765974895e-01	9.790579264001996e-01	5.968202925631122e-02	2.628171380825371e+00	8.316962070754793e-01	9.490405361908335e-01	-3.756781092065194e-01	9.710183657296407e-01	
45	5.590599775310000e-01	-5.334097253039431e-02	8.727183733103110e-01	9.795042824866942e-01	5.586676096096573e-02	2.618641121072908e+00	8.268698849220852e-01	9.474647380066979e-01	-3.864511497274883e-01	9.760946318123094e-01	
46	5.433599948880000e-01	-5.420452497803178e-02	8.692774000282922e-01	9.798683516166196e-01	5.204547971753707e-02	2.609610687057312e+00	8.223152857044772e-01	9.459756870220181e-01	-3.966176658382206e-01	9.808827241353286e-01	
47	5.276100039480000e-01	-5.500944181504098e-02	8.659674021205120e-01	9.802022706563261e-01	4.823040649141366e-02	2.600926131076808e+00	8.179319030923240e-01	9.445296683101899e-01	-4.064020020260625e-01	9.855245275374378e-01	
48	5.118399858470000e-01	-5.575408996861805e-02	8.626410306022659e-01	9.804740984151866e-01	4.444514934152840e-02	2.592188548047115e+00	8.135369053319005e-01	9.430769885405493e-01	-4.162122648841507e-01	9.901800358568215e-01	
49	4.960500001910000e-01	-5.643841821937829e-02	8.592894709903033e-01	9.807229410063732e-01	4.069402900739017e-02	2.583387341885901e+00	8.091060605514033e-01	9.415989464166657e-01	-4.261025434120462e-01	9.949090809335399e-01	
50	4.802699983120000e-01	-5.706109642790280e-02	8.561164966746934e-01	9.808897391768810e-01	3.694071433975861e-02	2.575039134649039e+00	8.049272925113968e-01	9.402076652393404e-01	-4.354301506442035e-01	9.993535912869197e-01	
51	4.645099937920000e-01	-5.762173732358741e-02	8.534777648717874e-01	9.810016153242490e-01	3.312829688491433e-02	2.568086973747118e+00	8.014616778893101e-01	9.390539635320305e-01	-4.431658975685042e-01	1.003034134677139e+00	
52	4.487800002100000e-01	-5.811988428406122e-02	8.514886682644962e-01	9.810434842279799e-01	2.923416825526681e-02	2.562827447594215e+00	7.988682017530155e-01	9.382018005962058e-01	-4.489549068013046e-01	1.005749843671537e+00	
53	4.331099987030000e-01	-5.855446740235890e-02	8.498577871814497e-01	9.810721239794892e-01	2.524505254068964e-02	2.558511407046294e+00	7.967455053492299e-01	9.375045064794121e-01	-4.536930684168974e-01	1.007970245999844e+00	
54	4.174999892710000e-01	-5.892526259005415e-02	8.479104405748351e-01	9.811069332488510e-01	2.119281953260060e-02	2.553371489268560e+00	7.941972589658135e-01	9.366522936401079e-01	-4.593811183798806e-01	1.010681790012481e+00	
55	4.019699990750000e-01	-5.923138666593365e-02	8.448890143807886e-01	9.811807577813512e-01	1.712167145933546e-02	2.545429374201768e+00	7.902107241063058e-01	9.352834640481674e-01	-4.682796336912818e-01	1.015032214295567e+00	
56	3.865399956700000e-01	-5.947195947287566e-02	8.402838627462709e-01	9.812209085392654e-01	1.307752444350157e-02	2.533327792270775e+00	7.841310725678261e-01	9.331740228892146e-01	-4.818502844468168e-01	1.021724955381514e+00	
57	3.712300062180000e-01	-5.964609647491820e-02	8.342340492116377e-01	9.811457882827199e-01	9.048514862850764e-03	2.517413951117113e+00	7.761601045984463e-01	9.303865088363729e-01	-4.996426236641824e-01	1.030548369569741e+00	
58	3.560400009160000e-01	-5.975300938527933e-02	8.276186113729649e-01	9.808221126379250e-01	4.927041051845702e-03	2.499956546882081e+00	7.674996177296692e-01	9.273590603000553e-01	-5.189740675677026e-01	1.040105761205494e+00	
59	3.409900069240000e-01	-5.979154873235338e-02	8.217063273849257e-01	9.803238718779008e-01	5.743086646589528e-04	2.484304586470052e+00	7.598097442034647e-01	9.246731087267561e-01	-5.361389638315520e-01	1.048563871522524e+00	
60	3.261100053790000e-01	-5.976061573735369e-02	8.173972834475154e-01	9.798156775726753e-01	-4.047298911672769e-03	2.472862515979358e+00	7.542396153201010e-01	9.227332052523644e-01	-5.485722872319175e-01	1.054660805642907e+00	
61	3.113999962810000e-01	-5.965905298489077e-02	8.148898631215398e-01	9.793985641215489e-01	-8.915773582853245e-03	2.466175642771742e+00	7.510271421956684e-01	9.216302425443889e-01	-5.557429861703832e-01	1.058123026334707e+00	
62	2.968699932100000e-01	-5.948550367770564e-02	8.139099309875539e-01	9.791462824365800e-01	-1.401921007700980e-02	2.463548515840805e+00	7.497854758110969e-01	9.212143104106719e-01	-5.585145629216588e-01	1.059427852580201e+00	
63	2.825500071050000e-01	-5.923886847379105e-02	8.140205218458220e-01	9.789934083435403e-01	-1.934591786273035e-02	2.463816175229519e+00	7.499544341573980e-01	9.212967167668558e-01	-5.581374237558080e-01	1.059169370994407e+00	
64	2.684499919410000e-01	-5.891785793817003e-02	8.149087637035004e-01	9.789403164276138e-01	-2.493425033754116e-02	2.466162779063805e+00	7.511146275764392e-01	9.217162227619973e-01	-5.555477063025911e-01	1.057853244488703e+00	
65	2.545700073240000e-01	-5.852078607888647e-02	8.163741073193861e-01	9.788961164984753e-01	-3.081242593701225e-02	2.470035526760997e+00	7.530270880389164e-01	9.224044237653821e-01	-5.512788213417045e-01	1.055693181581044e+00	
66	2.409400045870000e-01	-5.804678537748484e-02	8.183666584202507e-01	9.788835082332273e-01	-3.703694500835126e-02	2.475315291399736e+00	7.556139579538987e-01	9.233195783079829e-01	-5.455045581386189e-01	1.052818919044277e+00	
67	2.275699973110000e-01	-5.749456350860475e-02	8.208023784068629e-01	9.788307712093112e-01	-4.362471977073035e-02	2.481761495053702e+00	7.587840295395455e-01	9.244418017066522e-01	-5.384285054920860e-01	1.049291365033773e+00	
68	2.144699990750000e-01	-5.686282143355520e-02	8.235949895751896e-01	9.787514639389402e-01	-5.060936780112451e-02	2.489157390558460e+00	7.624134225497313e-01	9.257140125912914e-01	-5.303271818086355e-01	1.045288348801963e+00	
69	2.016600072380000e-01	-5.615086604715914e-02	8.266323092109570e-01	9.785783324290837e-01	-5.801098207630169e-02	2.497190886600666e+00	7.663713300886793e-01	9.271006244846657e-01	-5.214925667663408e-01	1.040920426350502e+00	
70	1.891400069000000e-01	-5.535700664162059e-02	8.299349906927590e-01	9.783251233491937e-01	-6.587681121277483e-02	2.505926058588973e+00	7.706752154942457e-01	9.285970878887175e-01	-5.118856797003445e-01	1.036200538947875e+00	
71	1.769299954180000e-01	-5.448080939662726e-02	8.336678914678757e-01	9.779382248131603e-01	-7.427134114023436e-02	2.515783757873919e+00	7.755550887954146e-01	9.302926221973847e-01	-5.009931053673782e-01	1.030845148791077e+00	
72	1.650400012730000e-01	-5.352142048016197e-02	8.380788168379267e-01	9.774198222216415e-01	-8.326504236686838e-02	2.527423849262882e+00	7.813294254775112e-01	9.322863312850086e-01	-4.881039609876983e-01	1.024537292808993e+00	
73	1.534900069240000e-01	-5.247904844875882e-02	8.432347211600890e-01	9.766898604949972e-01	-9.289047132791314e-02	2.541006233923078e+00	7.881026621929759e-01	9.346183718677233e-01	-4.729851290335360e-01	1.017143861400303e+00	
74	1.422899961470000e-01	-5.135339561933356e-02	8.490577179932941e-01	9.757356385547372e-01	-1.031903156448539e-01	2.556335141773733e+00	7.957630711364465e-01	9.372308316296722e-01	-4.558860019275748e-01	1.008841263972694e+00	
75	1.314399987460000e-01	-5.014318562401596e-02	8.554009799888322e-01	9.744167804617071e-01	-1.142168354763370e-01	2.572992893188748e+00	8.041486548610752e-01	9.400838597023515e-01	-4.371681811136714e-01	9.997487690030890e-01	
76	1.209499984980000e-01	-4.884815116394804e-02	8.623302918348058e-01	9.727531810166905e-01	-1.260814089130464e-01	2.591177627261057e+00	8.133209929830192e-01	9.431664417731309e-01	-4.166942120914751e-01	9.898935516249922e-01	
77	1.108499988910000e-01	-4.747106171041979e-02	8.700249050623473e-01	9.706503225230770e-01	-1.388511345052006e-01	2.611351335199497e+00	8.235257836805245e-01	9.465542640086948e-01	-3.939156614274006e-01	9.790232676281332e-01	
78	1.011300012470000e-01	-4.600972412639971e-02	8.785420720137165e-01	9.678770336831058e-01	-1.526020610168566e-01	2.633616900964241e+00	8.348861764498116e-01	9.503087023893567e-01	-3.685576418530992e-01	9.669260713541887e-01	
79	9.181000292300000e-02	-4.446623351608199e-02	8.879210976626849e-01	9.642787311886406e-01	-1.674588219423135e-01	2.658063332540082e+00	8.474683404205099e-01	9.544410451011238e-01	-3.404724544185047e-01	9.535460750214472e-01	
80	8.290000259900000e-02	-4.284169064762338e-02	8.982739548996231e-01	9.597648696249731e-01	-1.835402215647812e-01	2.684998847494375e+00	8.614061285598424e-01	9.589570351687418e-01	-3.093613201789231e-01	9.388406926458270e-01	
81	7.440000027400000e-02	-4.113543381344816e-02	9.096597199779994e-01	9.540430667333767e-01	-2.009589907794098e-01	2.714538317993331e+00	8.768179035936805e-01	9.638965915901905e-01	-2.749600366212489e-01	9.226494900218982e-01	
82	6.633000075800000e-02	-3.935098498594303e-02	9.222302480178307e-01	9.468496346792358e-01	-2.198712108529261e-01	2.747067282281304e+00	8.939176547126394e-01	9.692998647940207e-01	-2.367909493021442e-01	9.048008868312688e-01	
83	5.869000032500000e-02	-3.748802700617411e-02	9.361036069680908e-01	9.377666904782036e-01	-2.404118836352673e-01	2.782851720826479e+00	9.129055364548339e-01	9.752184797274822e-01	-1.944072846990316e-01	8.850712315527189e-01	
84	5.149000138000000e-02	-3.554856329755666e-02	9.514703349677776e-01	9.262779279851746e-01	-2.627019178329504e-01	2.822344565952595e+00	9.340808637544494e-01	9.817235802586353e-01	-1.471409291195325e-01	8.631508671580840e-01	
85	4.473999887700000e-02	-3.353510230374950e-02	9.686081909109103e-01	9.116538204506428e-01	-2.868594419434861e-01	2.866204841361588e+00	9.578812130848449e-01	9.889253694871429e-01	-9.401514936418558e-02	8.385651966641525e-01	
86	3.844000026600000e-02	-3.144732039651830e-02	9.877457449439507e-01	8.929607873507723e-01	-3.129550498804122e-01	2.914947866676240e+00	9.846936619038535e-01	9.969100519483683e-01	-3.416593325032691e-02	8.108712998435329e-01	
