"PointID"	"x"	"y"	"Conservative_1"	"Conservative_2"	"Conservative_3"	"Conservative_4"	"Pressure"	"Temperature"	"C<sub>p</sub>"	"Mach"
0	9.997500181200000e-01	-3.632896519016437e-05	1.186903829461086e+00	7.475523858735038e-01	1.005056545818540e-01	3.415595867636853e+00	1.270369424551319e+00	1.070322121319746e+00	6.035031798020520e-01	5.191524300259989e-01	
1	9.990000128750000e-01	-1.452537504052920e-04	1.162738417976691e+00	7.721275115076129e-01	1.098443746376272e-01	3.353701442996202e+00	1.236857444211287e+00	1.063745228581656e+00	5.286996522573375e-01	5.496358112378229e-01	
2	9.977599978450000e-01	-3.251111630156300e-04	1.147865338006250e+00	7.948762069911847e-01	1.139998015598151e-01	3.317279277005815e+00	1.214559831562488e+00	1.058103064312475e+00	4.789281954519820e-01	5.747800659737619e-01	
3	9.960200190539999e-01	-5.769983605901485e-04	1.135662556144303e+00	8.125056857041145e-01	1.165807316455421e-01	3.287368691893270e+00	1.196293118973425e+00	1.053387832944823e+00	4.381542834228245e-01	5.951741063178060e-01	
4	9.937800168990000e-01	-9.004365425509819e-04	1.125261064286958e+00	8.260124091975747e-01	1.186867569015776e-01	3.261692019232563e+00	1.180904099560895e+00	1.049449000805157e+00	4.038037936627121e-01	6.118234461114166e-01	
5	9.910500049590000e-01	-1.293363843462116e-03	1.116258016338188e+00	8.373033252964445e-01	1.200598651119749e-01	3.239461543010067e+00	1.167590020741407e+00	1.045985787919903e+00	3.740848677263553e-01	6.261965302925880e-01	
6	9.878399968150000e-01	-1.753609743384430e-03	1.108016033919215e+00	8.466972981210809e-01	1.209680594903469e-01	3.218967772389816e+00	1.155543968122509e+00	1.042894626745771e+00	3.471963574163138e-01	6.388305400413132e-01	
7	9.841300249100000e-01	-2.283176811071472e-03	1.100490111331326e+00	8.550376041583024e-01	1.216210002757147e-01	3.200252347119401e+00	1.144546613633424e+00	1.040033528560108e+00	3.226486911460365e-01	6.503706462979834e-01	
8	9.799500107769999e-01	-2.876826092032643e-03	1.093469519578347e+00	8.624247759975471e-01	1.220556340317382e-01	3.182747012580815e+00	1.134334247178740e+00	1.037371620213201e+00	2.998532303096882e-01	6.609821635548756e-01	
9	9.752799868580000e-01	-3.536324145770189e-03	1.086873617381151e+00	8.691211785420722e-01	1.222942266106298e-01	3.166279523226886e+00	1.124760737494794e+00	1.034858809255977e+00	2.784837890508792e-01	6.708942752859005e-01	
10	9.701499938960000e-01	-4.256268552403566e-03	1.080619395027285e+00	8.752340041652427e-01	1.223665112925780e-01	3.150640330411719e+00	1.115707898304176e+00	1.032470732469137e+00	2.582765587146789e-01	6.802242733759574e-01	
11	9.645400047300000e-01	-5.038225493362627e-03	1.074648259372328e+00	8.808660611805359e-01	1.222958509218378e-01	3.135687652459288e+00	1.107086195046438e+00	1.030184700334467e+00	2.390316853715127e-01	6.890769872547974e-01	
12	9.584699869160000e-01	-5.878077433056352e-03	1.068920722630750e+00	8.860979691286046e-01	1.220920644367659e-01	3.121327947896816e+00	1.098833251865637e+00	1.027983861292603e+00	2.206099372000835e-01	6.975301452877463e-01	
13	9.519400000570000e-01	-6.774428848839826e-03	1.063400344652179e+00	8.909708359297951e-01	1.217678993124639e-01	3.107468025486115e+00	1.090898402654157e+00	1.025858613024028e+00	2.028982202101730e-01	7.056306859416838e-01	
14	9.449599981310000e-01	-7.724467125531491e-03	1.058064832778942e+00	8.955406886367974e-01	1.213332357173243e-01	3.094057504133497e+00	1.083244015831017e+00	1.023797391494379e+00	1.858125353370906e-01	7.134309186188940e-01	
15	9.375399947170000e-01	-8.725349486403867e-03	1.052894704361385e+00	8.998356461272765e-01	1.207967735645532e-01	3.081047615872517e+00	1.075841936191565e+00	1.021794422305598e+00	1.692900361418851e-01	7.209595292510717e-01	
16	9.296900033950000e-01	-9.774221272349531e-03	1.047868585767783e+00	9.038899954794771e-01	1.201656518543151e-01	3.068386447066405e+00	1.068659696833464e+00	1.019841334446005e+00	1.532582518604114e-01	7.282537494227211e-01	
17	9.214000105860000e-01	-1.087086069705918e-02	1.042968614645130e+00	9.077290072476225e-01	1.194508060280771e-01	3.056030023443821e+00	1.061670749498922e+00	1.017931637243136e+00	1.376579229886660e-01	7.353426269826533e-01	
18	9.126999974250000e-01	-1.200973104171110e-02	1.038186265441333e+00	9.113726015883851e-01	1.186531025636611e-01	3.043958394304628e+00	1.054861386570577e+00	1.016061781670899e+00	1.224584521664674e-01	7.422434690958982e-01	
19	9.035800099370001e-01	-1.319055953446835e-02	1.033503924273672e+00	9.148272058523899e-01	1.177800115440499e-01	3.032124089661633e+00	1.048209535773128e+00	1.014228887916213e+00	1.076105709221603e-01	7.489705510820955e-01	
20	8.940600156780000e-01	-1.440916392228702e-02	1.028919598473993e+00	9.181268306081353e-01	1.168352759863189e-01	3.020529016108208e+00	1.041705426549774e+00	1.012426459846565e+00	9.309246997717471e-02	7.555508518713693e-01	
21	8.841500282290000e-01	-1.566269158090452e-02	1.024425759772301e+00	9.212741405404329e-01	1.158254137167490e-01	3.009152466574244e+00	1.035340039939953e+00	1.010654046975623e+00	7.888401772310999e-02	7.619887543101543e-01	
22	8.738499879840000e-01	-1.694956337677533e-02	1.020000492447275e+00	9.242684107740283e-01	1.147516898841818e-01	2.997933925920001e+00	1.029087369055531e+00	1.008908698256071e+00	6.492716307038145e-02	7.682974669652514e-01	
23	8.631799817090000e-01	-1.826569132102762e-02	1.015650680155619e+00	9.271511078731577e-01	1.136200355376178e-01	2.986901931850696e+00	1.022946052117572e+00	1.007182953848695e+00	5.121886633386694e-02	7.745060314455807e-01	
24	8.521599769590000e-01	-1.960709133914372e-02	1.011353769864519e+00	9.299068795734020e-01	1.124330676424551e-01	2.975990866252827e+00	1.016892667468033e+00	1.005476716227849e+00	3.770684702685882e-02	7.806165786167945e-01	
25	8.407700061800000e-01	-2.097463226217677e-02	1.007106696656886e+00	9.325585882385155e-01	1.111968453111915e-01	2.965197911845138e+00	1.010917930713400e+00	1.003784339900792e+00	2.437038105669537e-02	7.866508794996454e-01	
26	8.290500044819999e-01	-2.236196298315981e-02	1.002896419879131e+00	9.351030506401518e-01	1.099052471519289e-01	2.954486252266750e+00	1.005007175496786e+00	1.002104659639637e+00	1.117673101961254e-02	7.926144138691236e-01	
27	8.170099854470000e-01	-2.376642068849115e-02	9.987225964617100e-01	9.375588417084709e-01	1.085646820320398e-01	2.943859556921342e+00	9.991553743632640e-01	1.000433331440670e+00	-1.885325082000091e-03	7.985237433419762e-01	
28	8.046399950980000e-01	-2.518763605296113e-02	9.945773622115238e-01	9.399201057795360e-01	1.071746656979775e-01	2.933294589089058e+00	9.933547179901292e-01	9.987706896739779e-01	-1.483321877203304e-02	8.043786945930463e-01	
29	7.919700145720000e-01	-2.662062628442961e-02	9.904597224595648e-01	9.421910422683621e-01	1.057317515790856e-01	2.922789241830561e+00	9.876033862284678e-01	9.971161510495310e-01	-2.767101288288444e-02	8.101822827003015e-01	
30	7.790099978450000e-01	-2.806276676215449e-02	9.863672505949588e-01	9.443922381853818e-01	1.042374043548109e-01	2.912342235254784e+00	9.818930764027949e-01	9.954639874859339e-01	-4.041724017233285e-02	8.159553946125309e-01	
31	7.657799720760000e-01	-2.951033727360171e-02	9.822863794922821e-01	9.465221677134915e-01	1.026942225349008e-01	2.901916481563897e+00	9.762073161783753e-01	9.938113126265187e-01	-5.310866924469798e-02	8.217087180229927e-01	
32	7.522799968720000e-01	-3.096181144522562e-02	9.781846630379291e-01	9.485758081358512e-01	1.010962153049889e-01	2.891423069711142e+00	9.705069141075560e-01	9.921510229913764e-01	-6.583278100991972e-02	8.274673683173543e-01	
33	7.385200262070000e-01	-3.241453277608040e-02	9.740620756285788e-01	9.505768210136809e-01	9.944572001466602e-02	2.880868491907888e+00	9.647852758812342e-01	9.904761719201952e-01	-7.860429490795939e-02	8.332555564508872e-01	
34	7.245299816130000e-01	-3.386376679305321e-02	9.699206839134027e-01	9.525256303778339e-01	9.773310140267673e-02	2.870258156481662e+00	9.590451569469176e-01	9.887871996681165e-01	-9.141706038634462e-02	8.390717646778063e-01	
35	7.103199958800001e-01	-3.530689307158652e-02	9.657534957867816e-01	9.544048109664904e-01	9.596393536159496e-02	2.859568598262930e+00	9.532824142858257e-01	9.870866825174722e-01	-1.042803252548533e-01	8.449071798961534e-01	
36	6.958900094030001e-01	-3.674225211597043e-02	9.615689006134194e-01	9.562508324677246e-01	9.412481574194768e-02	2.848832240475174e+00	9.474977471862526e-01	9.853664636843080e-01	-1.171925286021148e-01	8.507897610291312e-01	
37	6.812700033190000e-01	-3.816515293304169e-02	9.573357581493261e-01	9.580203092688303e-01	9.221529274118498e-02	2.837953493950780e+00	9.416638014179003e-01	9.836296131236946e-01	-1.302147289779011e-01	8.567088961246443e-01	
38	6.664699912070000e-01	-3.957289370556494e-02	9.530605460696260e-01	9.597482486565639e-01	9.023048956794362e-02	2.826959707128195e+00	9.357788024543969e-01	9.818671083526667e-01	-1.433508873785783e-01	8.626951286784725e-01	
39	6.514999866490000e-01	-4.096270419333766e-02	9.487238899941138e-01	9.614282694218153e-01	8.815935851214139e-02	2.815797228922035e+00	9.298199102387489e-01	9.800743082842764e-01	-1.566519860742213e-01	8.687637979241489e-01	
40	6.363800168040000e-01	-4.233084266562091e-02	9.443230008377996e-01	9.630552127395022e-01	8.600657847532824e-02	2.804457590620586e+00	9.237845815888971e-01	9.782506417500361e-01	-1.701237018104976e-01	8.749163449528741e-01	
41	6.211299896240000e-01	-4.367359094194759e-02	9.398453755832792e-01	9.646398425333252e-01	8.375055082108285e-02	2.792910393771423e+00	9.176538540219548e-01	9.763881143240697e-01	-1.838083615581367e-01	8.811791295929043e-01	
42	6.057599782940000e-01	-4.498807223669178e-02	9.352851391966492e-01	9.661685299067952e-01	8.140055288608795e-02	2.781136724389402e+00	9.114234451024110e-01	9.744872519681712e-01	-1.977155243249754e-01	8.875496704699541e-01	
43	5.902799963950000e-01	-4.627132533375768e-02	9.306338319550951e-01	9.676534151140115e-01	7.893114834046132e-02	2.769117540299417e+00	9.050789972932953e-01	9.725403979692923e-01	-2.118772381846087e-01	8.940528277072489e-01	
44	5.747100114820000e-01	-4.751950934859488e-02	9.258912870099328e-01	9.690785862313933e-01	7.634885444688101e-02	2.756848499795928e+00	8.986241939271411e-01	9.705504377615997e-01	-2.262852814126315e-01	9.006781157748844e-01	
45	5.590599775310000e-01	-4.872955796694115e-02	9.210526622008444e-01	9.704538050954014e-01	7.363181081045685e-02	2.744319793067697e+00	8.920497252496421e-01	9.685110980713091e-01	-2.409604347106203e-01	9.074455503324916e-01	
46	5.433599948880000e-01	-4.989683951066199e-02	9.161238994412979e-01	9.717603010052461e-01	7.078895832605187e-02	2.731542536724707e+00	8.853679384874943e-01	9.664281643863235e-01	-2.558751373047002e-01	9.143350968669902e-01	
47	5.276100039480000e-01	-5.101897737545535e-02	9.111252934784220e-01	9.729948812083137e-01	6.779820278180090e-02	2.718569877656922e+00	8.786058182634114e-01	9.643084486318451e-01	-2.709691556620281e-01	9.213236308267870e-01	
48	5.118399858470000e-01	-5.209138375948307e-02	9.060930149559171e-01	9.741297229347635e-01	6.464392854768707e-02	2.705489563999406e+00	8.718184054296250e-01	9.621731886676562e-01	-2.861196307374443e-01	9.283409973806693e-01	
49	4.960500001910000e-01	-5.311153541819326e-02	9.010332929121549e-01	9.751989634873065e-01	6.128777751545561e-02	2.692328218266792e+00	8.650036665250984e-01	9.600129910065720e-01	-3.013311015064767e-01	9.354181480977041e-01	
50	4.802699983120000e-01	-5.407492053959814e-02	8.958123308646111e-01	9.762314484806023e-01	5.774551808477040e-02	2.678741205806940e+00	8.579780135742244e-01	9.577653533147172e-01	-3.170133625575348e-01	9.427588718612722e-01	
51	4.645099937920000e-01	-5.497835513414191e-02	8.901393568132153e-01	9.772692264903774e-01	5.410301001622359e-02	2.663975141373695e+00	8.503468433592232e-01	9.552963104603609e-01	-3.340472246445911e-01	9.507966999959565e-01	
52	4.487800002100000e-01	-5.581859897363720e-02	8.839737144851753e-01	9.782165355882944e-01	5.045795226647638e-02	2.647897910770106e+00	8.420817603709636e-01	9.526095024911354e-01	-3.524960706005277e-01	9.595136638014270e-01	
53	4.331099987030000e-01	-5.659141825851464e-02	8.782912128606797e-01	9.788702033210376e-01	4.666804827789753e-02	2.633024448591113e+00	8.345204045190215e-01	9.501636727081759e-01	-3.693740970557555e-01	9.674228611883248e-01	
54	4.174999892710000e-01	-5.729416860686566e-02	8.749000467173711e-01	9.790570522940246e-01	4.239894704492041e-02	2.624064343113847e+00	8.300920005723217e-01	9.487849539919797e-01	-3.792589272939248e-01	9.718707348697481e-01	
55	4.019699990750000e-01	-5.792324246601335e-02	8.746164653674057e-01	9.788779885908006e-01	3.725249972141233e-02	2.623191228893874e+00	8.298454830457296e-01	9.488107255071301e-01	-3.798091896300679e-01	9.717876302642773e-01	
56	3.865399956700000e-01	-5.847520956655861e-02	8.746709156965935e-01	9.788194521327551e-01	3.130629007602651e-02	2.623249716538211e+00	8.300019571973425e-01	9.489305546833278e-01	-3.794599169702177e-01	9.714013253292995e-01	
57	3.712300062180000e-01	-5.894684318665333e-02	8.678757807434168e-01	9.796163775114913e-01	2.555517606528267e-02	2.605516628548604e+00	8.209073974432842e-01	9.458812144061682e-01	-3.997602735640977e-01	9.812143129998281e-01	
58	3.560400009160000e-01	-5.933561549045978e-02	8.473381349740575e-01	9.809631866561196e-01	2.143572949471886e-02	2.551843427063093e+00	7.934967394088368e-01	9.364581937919401e-01	-4.609447781052750e-01	1.011326540625250e+00	
59	3.409900069240000e-01	-5.963847719943702e-02	8.167258977324993e-01	9.804380920768710e-01	1.848554773333269e-02	2.471398832330718e+00	7.530825949436529e-01	9.220750768825366e-01	-5.511549220007748e-01	1.056753923750873e+00	
60	3.261100053790000e-01	-5.985254444802346e-02	7.923363005312573e-01	9.770936855399723e-01	1.316970171615644e-02	2.406585910722295e+00	7.216040061631740e-01	9.107294537424860e-01	-6.214196291000581e-01	1.092213121067325e+00	
61	3.113999962810000e-01	-5.997565198183213e-02	7.824205094439766e-01	9.746362778880634e-01	6.274059051101163e-03	2.379904666464475e+00	7.091371383159347e-01	9.063376148202965e-01	-6.492474591162172e-01	1.105865539061848e+00	
62	2.968699932100000e-01	-6.000550062925582e-02	7.823466336889746e-01	9.741349721319816e-01	-7.582061951100231e-04	2.379527238528417e+00	7.092228972160637e-01	9.065328163705226e-01	-6.490560329998578e-01	1.105259523104717e+00	
63	2.825500071050000e-01	-5.994005483718394e-02	7.856219895935196e-01	9.744020142527567e-01	-7.658938920807973e-03	2.388146585486903e+00	7.135347625866096e-01	9.082418415449297e-01	-6.394313335120321e-01	1.099950615254196e+00	
64	2.684499919410000e-01	-5.977765596976551e-02	7.891993786598788e-01	9.749787826152055e-01	-1.463819541828682e-02	2.397684009801659e+00	7.181210819028535e-01	9.099361977733414e-01	-6.291940136097021e-01	1.094681766273249e+00	
65	2.545700073240000e-01	-5.951657836311273e-02	7.925516605366550e-01	9.754917690698822e-01	-2.187572267325466e-02	2.406637578647222e+00	7.224024936947503e-01	9.114894708637605e-01	-6.196372908599324e-01	1.089846560646778e+00	
66	2.409400045870000e-01	-5.915585896897953e-02	7.961030718294921e-01	9.759490903946830e-01	-2.953095334459487e-02	2.416117918197765e+00	7.269433296524536e-01	9.131271507116469e-01	-6.095014963114876e-01	1.084743220930549e+00	
67	2.275699973110000e-01	-5.869456802648413e-02	8.000898916500424e-01	9.763264968383955e-01	-3.759334360936123e-02	2.426736658671543e+00	7.320648050301563e-01	9.149781951630506e-01	-5.980696316291155e-01	1.078968118036151e+00	
68	2.144699990750000e-01	-5.813197420944613e-02	8.044892150841861e-01	9.766427391200927e-01	-4.606859156403903e-02	2.438446413582735e+00	7.377238307068724e-01	9.170089752286774e-01	-5.854378778864455e-01	1.072623514447336e+00	
69	2.016600072380000e-01	-5.746811193675738e-02	8.091789123877666e-01	9.768290146713280e-01	-5.496147154592217e-02	2.450910595073057e+00	7.437748577069775e-01	9.191723193974601e-01	-5.719311211897824e-01	1.065854347401030e+00	
70	1.891400069000000e-01	-5.670228146432130e-02	8.141861936271191e-01	9.768883272633879e-01	-6.430932337691653e-02	2.464207982660826e+00	7.502465078150083e-01	9.214679807732117e-01	-5.574854736272136e-01	1.058658918117549e+00	
71	1.769299954180000e-01	-5.583513598033686e-02	8.196998333367018e-01	9.767808935773117e-01	-7.417537300710353e-02	2.478827042523054e+00	7.573956223948128e-01	9.239914314874620e-01	-5.415276285830071e-01	1.050734372111605e+00	
72	1.650400012730000e-01	-5.486709202536137e-02	8.259371727502959e-01	9.764884168568611e-01	-8.460890942612533e-02	2.495341369411076e+00	7.655066752982491e-01	9.268340263087828e-01	-5.234225997806939e-01	1.041787721542804e+00	
73	1.534900069240000e-01	-5.379977779145956e-02	8.328972083651238e-01	9.759337229022809e-01	-9.562823706144781e-02	2.513735320127052e+00	7.745913511982307e-01	9.299963349843132e-01	-5.031443053610921e-01	1.031808830773399e+00	
74	1.422899961470000e-01	-5.263443049277360e-02	8.404232330818886e-01	9.750737245590156e-01	-1.072554391092377e-01	2.533597839796467e+00	7.844420164517225e-01	9.333892562383372e-01	-4.811562132774051e-01	1.021070126834455e+00	
75	1.314399987460000e-01	-5.137133628795417e-02	8.483437688582263e-01	9.737726434527462e-01	-1.195397567240936e-01	2.554449088447759e+00	7.948615038603090e-01	9.369568482009385e-01	-4.578984288832390e-01	1.009740676375319e+00	
76	1.209499984980000e-01	-5.001187382363489e-02	8.567241089220298e-01	9.720412773052054e-01	-1.325790594958612e-01	2.576482929292289e+00	8.059137348296002e-01	9.406922560445260e-01	-4.332282704696425e-01	9.978341633937440e-01	
77	1.108499988910000e-01	-4.856066993422563e-02	8.657494171459921e-01	9.697996526834595e-01	-1.464308272801436e-01	2.600181098066441e+00	8.178480092768439e-01	9.446705860605039e-01	-4.065892650070450e-01	9.851006015888693e-01	
78	1.011300012470000e-01	-4.701715290498424e-02	8.754540379662381e-01	9.668105293237296e-01	-1.611521750847937e-01	2.625583226588057e+00	8.307602900017298e-01	9.489479218482607e-01	-3.777672098175675e-01	9.713453609656992e-01	
79	9.181000292300000e-02	-4.538527151431038e-02	8.858541896199211e-01	9.629320274053301e-01	-1.768564679788357e-01	2.652720645233687e+00	8.446832761223123e-01	9.535240517231474e-01	-3.466891157984101e-01	9.565499730905512e-01	
80	8.290000259900000e-02	-4.366791468532204e-02	8.970418678131065e-01	9.580928788003132e-01	-1.936485950484955e-01	2.681852910063440e+00	8.597206179272556e-01	9.583951973425322e-01	-3.131236206980901e-01	9.407041503024948e-01	
81	7.440000027400000e-02	-4.186607976498817e-02	9.090505824313514e-01	9.520195166320826e-01	-2.116273983926806e-01	2.713029947050221e+00	8.759546868320124e-01	9.635928998463206e-01	-2.768868597499723e-01	9.236777119953702e-01	
82	6.633000075800000e-02	-3.998513962421356e-02	9.220048889612764e-01	9.444790811505756e-01	-2.309377284105659e-01	2.746569973566312e+00	8.935590184366814e-01	9.691478094474728e-01	-2.375914767038362e-01	9.053350601017071e-01	
83	5.869000032500000e-02	-3.802635805630503e-02	9.359940022545107e-01	9.350986068845605e-01	-2.517064794886469e-01	2.782669547575596e+00	9.126892793910445e-01	9.751016322675868e-01	-1.948900013592757e-01	8.854929610836619e-01	
84	5.149000138000000e-02	-3.599337852580232e-02	9.511788007445892e-01	9.234236132083590e-01	-2.740523307392410e-01	2.821712055749412e+00	9.335972428272007e-01	9.815160326285390e-01	-1.482204401178556e-01	8.638851611706215e-01	
85	4.473999887700000e-02	-3.389028465845557e-02	9.677992940070623e-01	9.088083035664561e-01	-2.981033562527843e-01	2.864267894476785e+00	9.566600796815952e-01	9.884901607239801e-01	-9.674089356786794e-02	8.400925688821694e-01	
86	3.844000026600000e-02	-3.171811260404538e-02	9.860437393399049e-01	8.904395812834395e-01	-3.239621918887911e-01	2.910761780552017e+00	9.821963302355081e-01	9.960981354569807e-01	-3.974033429574081e-02	8.137421248305131e-01	
