"Global_Index", "x_coord", "y_coord", "Pressure", "Pressure_Coefficient", "Mach_Number"
149, 4.960500001910000e-01, 1.327671252794183e-01, 5.031109081708638e+111, 1.123015420024250e+112, 5.077010438699494e+00
150, 5.118399858470000e-01, 1.318500548338407e-01, 4.973803627796932e+111, 1.110224024061815e+112, 4.940321956495806e+00
151, 5.276100039480000e-01, 1.311930694651647e-01, 5.596774771438437e+111, 1.249280082910365e+112, 4.709116703714851e+00
152, 5.433599948880000e-01, 1.307376226715467e-01, 4.858672491650391e+111, 1.084525109743391e+112, 4.791464620763747e+00
153, 5.590599775310000e-01, 1.304072984613042e-01, 6.699628785779423e+111, 1.495452853968621e+112, 4.468876947997100e+00
154, 5.747100114820000e-01, 1.301073642603410e-01, 6.851586548970082e+111, 1.529371997537965e+112, 4.314286206504192e+00
155, 5.902799963950000e-01, 1.297288266233926e-01, 8.700839503509802e+111, 1.942151674890581e+112, 4.045283193523519e+00
156, 6.057599782940000e-01, 1.291511789505700e-01, 1.022066754511993e+112, 2.281399005607128e+112, 3.983137688830047e+00
157, 6.211299896240000e-01, 1.282478998932214e-01, 1.379295923571273e+112, 3.078785543685877e+112, 3.665622971981060e+00
158, 6.363800168040000e-01, 1.268909793087002e-01, 1.827138946206935e+112, 4.078435147783337e+112, 3.748000245094735e+00
159, 6.514999866490000e-01, 1.249563896654068e-01, 2.591885562534250e+112, 5.785458844942521e+112, 3.384497033492137e+00
160, 6.664699912070000e-01, 1.223312107486829e-01, 3.163584896644928e+112, 7.061573430011000e+112, 3.338133159185594e+00
161, 6.812700033190000e-01, 1.189185786530556e-01, 4.848400911457944e+112, 1.082232346307577e+113, 3.274439036601422e+00
162, 6.958900094030001e-01, 1.146386834084472e-01, 6.286434048444534e+112, 1.403221885813512e+113, 3.202183838612360e+00
163, 7.103199958800001e-01, 1.094320097369969e-01, 8.384119551081872e+112, 1.871455256937918e+113, 3.006814099577203e+00
164, 7.245299816130000e-01, 1.032695920215449e-01, 1.177367062061417e+113, 2.628051477815662e+113, 2.787048710148901e+00
165, 7.385200262070000e-01, 9.613311701309454e-02, 1.581005022040576e+113, 3.529029067054856e+113, 2.672432136455685e+00
166, 7.522799968720000e-01, 8.802805891097162e-02, 2.173455606920532e+113, 4.851463408304759e+113, 2.485474187601091e+00
167, 7.657799720760000e-01, 7.899437898273363e-02, 2.797807888914015e+113, 6.245106894897355e+113, 2.302422223533054e+00
168, 7.790099978450000e-01, 6.908493622396777e-02, 3.530612800977168e+113, 7.880832145038322e+113, 2.151260918508260e+00
169, 7.919700145720000e-01, 5.837108114771325e-02, 4.341748256086048e+113, 9.691402357334929e+113, 2.003725833692600e+00
170, 8.046399950980000e-01, 4.697558537203825e-02, 5.187246210155578e+113, 1.157867457624013e+114, 1.935417694536169e+00
171, 8.170099854470000e-01, 3.506162197980520e-02, 5.510373153222494e+113, 1.229994007415735e+114, 1.740073850584264e+00
172, 8.290500044819999e-01, 2.287402789145688e-02, 5.965604747982700e+113, 1.331608202674710e+114, 1.681359062123624e+00
173, 8.407700061800000e-01, 1.068950129787965e-02, 6.430696242030475e+113, 1.435423268310374e+114, 1.644216945598206e+00
174, 8.521599769590000e-01, -1.120655756211040e-03, 8.374439427590206e+113, 1.869294515087099e+114, 1.536674502599580e+00
175, 8.631799817090000e-01, -1.208928606863621e-02, 1.221469319574094e+114, 2.726494016906460e+114, 1.292081931139933e+00
176, 8.738499879840000e-01, -2.177272488702847e-02, 1.412039182878444e+114, 3.151873176067956e+114, 1.263633245006886e+00
177, 8.841500282290000e-01, -2.969444492259848e-02, 9.300046721788689e+113, 2.075903286113547e+114, 1.168135425401450e+00
178, 8.940600156780000e-01, -3.545198698977841e-02, 6.682012772640519e+113, 1.491520708178687e+114, 1.134276649187637e+00
179, 9.035800099370001e-01, -3.879179784963943e-02, 2.427815651993064e+113, 5.419231366055947e+113, 1.629789060361980e+00
180, 9.126999974250000e-01, -3.964233248245743e-02, 1.293127575004973e+113, 2.886445479921814e+113, 1.605013307836845e+00
181, 9.214000105860000e-01, -3.815753372487309e-02, 3.322502032506947e+112, 7.416299179703007e+112, 2.657141978234348e+00
182, 9.296900033950000e-01, -3.470294696241132e-02, 7.262830583651004e+111, 1.621167540993528e+112, 4.058074618535182e+00
31, 7.657799720760000e-01, -2.951033727360171e-02, 9.559249114740927e+112, 2.133760963111814e+113, 3.287755587659767e+00
32, 7.522799968720000e-01, -3.096181144522562e-02, 1.008398981269849e+113, 2.250890583191628e+113, 3.972295745703879e+00
33, 7.385200262070000e-01, -3.241453277608040e-02, 6.453053940619693e+112, 1.440413826031182e+113, 3.082797162514371e+00
34, 7.245299816130000e-01, -3.386376679305321e-02, 8.290729884386084e+112, 1.850609349193322e+113, 4.253511498725585e+00
35, 7.103199958800001e-01, -3.530689307158652e-02, 5.297671959636400e+112, 1.182516062418839e+113, 3.247905551286558e+00
36, 6.958900094030001e-01, -3.674225211597043e-02, 6.834295524503850e+112, 1.525512393862467e+113, 4.454180549040291e+00
37, 6.812700033190000e-01, -3.816515293304169e-02, 4.458498931002567e+112, 9.952006542416444e+112, 3.383623640845677e+00
38, 6.664699912070000e-01, -3.957289370556494e-02, 5.637794618413589e+112, 1.258436298753033e+113, 4.500054876135273e+00
39, 6.514999866490000e-01, -4.096270419333766e-02, 4.390856088475598e+112, 9.801018054633030e+112, 4.197282471192432e+00
40, 6.363800168040000e-01, -4.233084266562091e-02, 4.389083895509501e+112, 9.797062266762279e+112, 4.360371438181699e+00
41, 6.211299896240000e-01, -4.367359094194759e-02, 3.704337523607931e+112, 8.268610543767703e+112, 5.128533291950251e+00
42, 6.057599782940000e-01, -4.498807223669178e-02, 3.337286886141021e+112, 7.449301085136208e+112, 4.373301051182620e+00
43, 5.902799963950000e-01, -4.627132533375768e-02, 3.094633429979210e+112, 6.907663906203594e+112, 5.603060046931929e+00
44, 5.747100114820000e-01, -4.751950934859488e-02, 3.089029986252247e+112, 6.895156219313052e+112, 5.117800893417831e+00
45, 5.590599775310000e-01, -4.872955796694115e-02, 2.483023186963449e+112, 5.542462470900557e+112, 5.662013913673909e+00
46, 5.433599948880000e-01, -4.989683951066199e-02, 2.302234509615616e+112, 5.138916316106286e+112, 4.974215639910640e+00
47, 5.276100039480000e-01, -5.101897737545535e-02, 1.957584014951470e+112, 4.369607176230961e+112, 5.770859255454590e+00
48, 5.118399858470000e-01, -5.209138375948307e-02, 1.678126770949153e+112, 3.745818685154360e+112, 5.046711513576891e+00
49, 4.960500001910000e-01, -5.311153541819326e-02, 1.701083958334208e+112, 3.797062406996001e+112, 6.164572144975716e+00
50, 4.802699983120000e-01, -5.407492053959814e-02, 1.607110727513805e+112, 3.587300731057601e+112, 5.837267471178865e+00
51, 4.645099937920000e-01, -5.497835513414191e-02, 1.249436458880413e+112, 2.788920667143778e+112, 5.816324326258068e+00
52, 4.487800002100000e-01, -5.581859897363720e-02, 1.241205592562633e+112, 2.770548197684450e+112, 5.763981303829442e+00
53, 4.331099987030000e-01, -5.659141825851464e-02, 8.503869134183498e+111, 1.898185074594531e+112, 5.389610941044779e+00
54, 4.174999892710000e-01, -5.729416860686566e-02, 7.887809147003928e+111, 1.760671684599091e+112, 5.516160160166189e+00
55, 4.019699990750000e-01, -5.792324246601335e-02, 4.786639230660187e+111, 1.068446256843792e+112, 5.386593482457108e+00
56, 3.865399956700000e-01, -5.847520956655861e-02, 6.434200606477342e+111, 1.436205492517264e+112, 5.391444575570646e+00
57, 3.712300062180000e-01, -5.894684318665333e-02, 6.483981576580184e+111, 1.447317316200934e+112, 5.453234532579881e+00
58, 3.560400009160000e-01, -5.933561549045978e-02, 5.632852998947447e+111, 1.257333258693626e+112, 5.515774720832992e+00
59, 3.409900069240000e-01, -5.963847719943702e-02, 5.200128557987945e+111, 1.160742981693738e+112, 5.755056837050101e+00
60, 3.261100053790000e-01, -5.985254444802346e-02, 4.919728394450385e+111, 1.098153659475532e+112, 5.782206625526419e+00
61, 3.113999962810000e-01, -5.997565198183213e-02, 4.514042767404092e+111, 1.007598832009842e+112, 5.759313345840213e+00
62, 2.968699932100000e-01, -6.000550062925582e-02, 4.420019915554106e+111, 9.866115882933274e+111, 5.738449008445584e+00
63, 2.825500071050000e-01, -5.994005483718394e-02, 3.927534404799961e+111, 8.766817867857057e+111, 6.131879636162837e+00
64, 2.684499919410000e-01, -5.977765596976551e-02, 3.586540387818464e+111, 8.005670508523358e+111, 6.323367016976579e+00
65, 2.545700073240000e-01, -5.951657836311273e-02, 2.995769974538722e+111, 6.686986550309648e+111, 6.969385937829879e+00
66, 2.409400045870000e-01, -5.915585896897953e-02, 2.908877273317780e+111, 6.493029627941473e+111, 6.916995418354751e+00
67, 2.275699973110000e-01, -5.869456802648413e-02, 3.257090694561015e+111, 7.270291728930838e+111, 6.442685131959078e+00
68, 2.144699990750000e-01, -5.813197420944613e-02, 3.185821597423050e+111, 7.111208922819309e+111, 6.232052797814544e+00
69, 2.016600072380000e-01, -5.746811193675738e-02, 2.343517134311143e+111, 5.231065031944516e+111, 7.592517269220684e+00
70, 1.891400069000000e-01, -5.670228146432130e-02, 1.972829181868471e+111, 4.403636566670693e+111, 7.184415627236923e+00
71, 1.769299954180000e-01, -5.583513598033686e-02, 1.704632945117051e+111, 3.804984252493417e+111, 7.079726666361161e+00
72, 1.650400012730000e-01, -5.486709202536137e-02, 1.518045849967491e+111, 3.388495200820292e+111, 7.030406693435998e+00
73, 1.534900069240000e-01, -5.379977779145956e-02, 1.293795363222442e+111, 2.887936078621522e+111, 6.973679066019885e+00
74, 1.422899961470000e-01, -5.263443049277360e-02, 1.252254049395661e+111, 2.795209931686743e+111, 6.916869747880990e+00
75, 1.314399987460000e-01, -5.137133628795417e-02, 1.061458791642408e+111, 2.369327659916090e+111, 6.760633019740297e+00
76, 1.209499984980000e-01, -5.001187382363489e-02, 9.986599491340092e+110, 2.229151672174128e+111, 6.795465374046035e+00
77, 1.108499988910000e-01, -4.856066993422563e-02, 8.692976745190889e+110, 1.940396594908681e+111, 6.517839992276181e+00
78, 1.011300012470000e-01, -4.701715290498424e-02, 8.111930636729391e+110, 1.810698802841382e+111, 6.530709233977457e+00
79, 9.181000292300000e-02, -4.538527151431038e-02, 6.811350724197012e+110, 1.520390786651119e+111, 6.585117809183511e+00
80, 8.290000259900000e-02, -4.366791468532204e-02, 6.049133763440543e+110, 1.350253072196550e+111, 6.634115196065928e+00
81, 7.440000027400000e-02, -4.186607976498817e-02, 4.443769737858292e+110, 9.919128879147973e+110, 6.729098976160048e+00
82, 6.633000075800000e-02, -3.998513962421356e-02, 4.115902465232277e+110, 9.187282288464905e+110, 6.743950419462254e+00
83, 5.869000032500000e-02, -3.802635805630503e-02, 3.363831030389161e+110, 7.508551407118662e+110, 6.901006219438364e+00
84, 5.149000138000000e-02, -3.599337852580232e-02, 3.148743523150421e+110, 7.028445364175048e+110, 6.982430316904423e+00
113, 4.473999887700000e-02, 1.104510264804116e-01, 3.658090920908171e+108, 8.165381519884311e+108, 5.843115964861721e+00
114, 5.149000138000000e-02, 1.187444203721190e-01, 3.261306957721844e+108, 7.279703030629116e+108, 6.723662347335061e+00
115, 5.869000032500000e-02, 1.265928605086634e-01, 6.546718251067028e+108, 1.461321038184605e+109, 6.450707537465498e+00
116, 6.633000075800000e-02, 1.339488185489002e-01, 7.777168134535767e+108, 1.735975030030305e+109, 6.451679367053385e+00
117, 7.440000027400000e-02, 1.407749443953278e-01, 6.373521350038441e+107, 1.422661015633581e+108, 1.930302444466058e+01
118, 8.290000259900000e-02, 1.470498019874715e-01, 6.863413183880096e+108, 1.532011871401807e+109, 7.114632803579295e+00
119, 9.181000292300000e-02, 1.527442867935508e-01, 5.405303887409694e+108, 1.206541046296807e+109, 1.153862435191116e+01
120, 1.011300012470000e-01, 1.578504112772461e-01, 3.585515881932654e+109, 8.003383665028246e+109, 6.213322482119472e+00
121, 1.108499988910000e-01, 1.623589073791274e-01, 9.067487036996791e+109, 2.023992642186784e+110, 6.092565667953835e+00
122, 1.209499984980000e-01, 1.662628234616048e-01, 1.426442566196148e+110, 3.184023585259259e+110, 5.950871121948771e+00
123, 1.314399987460000e-01, 1.695714966676885e-01, 3.443712803246217e+110, 7.686858935817448e+110, 5.810348447750425e+00
124, 1.422899961470000e-01, 1.722846302635820e-01, 4.345229942939104e+110, 9.699173979774786e+110, 5.846242485902917e+00
125, 1.534900069240000e-01, 1.744140581701854e-01, 8.493932647929191e+110, 1.895967108912766e+111, 5.441313589875218e+00
126, 1.650400012730000e-01, 1.759759604221808e-01, 1.050459440548628e+111, 2.344775536938901e+111, 5.375148677650643e+00
127, 1.769299954180000e-01, 1.769869728410401e-01, 1.828027011702105e+111, 4.080417436835057e+111, 5.160698650548090e+00
128, 1.891400069000000e-01, 1.774666072403312e-01, 2.070410722212009e+111, 4.621452504937521e+111, 5.128040257080657e+00
129, 2.016600072380000e-01, 1.774386904050618e-01, 3.133739180643456e+111, 6.994953528221999e+111, 4.888282285548681e+00
130, 2.144699990750000e-01, 1.769303275218546e-01, 3.478181241229080e+111, 7.763797413457768e+111, 4.842097816626867e+00
131, 2.275699973110000e-01, 1.759709067771599e-01, 4.586263028220463e+111, 1.023719425942068e+112, 4.631458259091518e+00
132, 2.409400045870000e-01, 1.745937484386236e-01, 5.008791520113648e+111, 1.118033821453939e+112, 4.558476759521695e+00
133, 2.545700073240000e-01, 1.728348691822849e-01, 6.056771979926591e+111, 1.351958031233614e+112, 4.411545220778375e+00
134, 2.684499919410000e-01, 1.707334028358173e-01, 6.507271665510975e+111, 1.452515996765843e+112, 4.340140429074702e+00
135, 2.825500071050000e-01, 1.683353354775186e-01, 7.323773294207870e+111, 1.634770824599971e+112, 4.309928776846390e+00
136, 2.968699932100000e-01, 1.656854053352486e-01, 7.595882188578636e+111, 1.695509417093446e+112, 4.218126958219099e+00
137, 3.113999962810000e-01, 1.628329600240641e-01, 8.018790529991153e+111, 1.789908600444454e+112, 4.235276361394734e+00
138, 3.261100053790000e-01, 1.598345754229167e-01, 7.997782201103740e+111, 1.785219241317799e+112, 4.179282130321057e+00
139, 3.409900069240000e-01, 1.567455854985308e-01, 7.932265895855296e+111, 1.770595066039128e+112, 4.220855260437167e+00
140, 3.560400009160000e-01, 1.536210207466069e-01, 7.950241075701124e+111, 1.774607382969001e+112, 4.240045542664392e+00
141, 3.712300062180000e-01, 1.505230898197973e-01, 7.005409933072746e+111, 1.563707574346595e+112, 4.342001501956887e+00
142, 3.865399956700000e-01, 1.475113898926419e-01, 6.807527196953622e+111, 1.519537320748576e+112, 4.391927986938844e+00
143, 4.019699990750000e-01, 1.446395725378670e-01, 6.076781565089639e+111, 1.356424456493223e+112, 4.594529384610885e+00
144, 4.174999892710000e-01, 1.419614176781985e-01, 5.459549593130954e+111, 1.218649462752445e+112, 4.594685379190961e+00
145, 4.331099987030000e-01, 1.395243503732943e-01, 4.982428588808795e+111, 1.112149238573392e+112, 4.857873347803379e+00
146, 4.487800002100000e-01, 1.373669671430420e-01, 4.556608868544890e+111, 1.017100193871627e+112, 4.782432240250870e+00
147, 4.645099937920000e-01, 1.355143312429033e-01, 4.292203632858171e+111, 9.580811680486989e+111, 5.042574582262713e+00
148, 4.802699983120000e-01, 1.339819465696577e-01, 4.045781546409388e+111, 9.030762380378099e+111, 4.973096641269005e+00
85, 4.473999887700000e-02, -3.389028465845557e-02, 2.195557218275234e+110, 4.900797362221505e+110, 7.593459689585526e+00
86, 3.844000026600000e-02, -3.171811260404538e-02, 2.107057134424434e+110, 4.703252532197397e+110, 7.656459365390757e+00
87, 3.260000050100000e-02, -2.948109446637338e-02, 1.463338144640179e+110, 3.266379787143257e+110, 5.991376085826000e+00
88, 2.723000012300000e-02, -2.718419978786347e-02, 1.066567229184840e+110, 2.380730422287590e+110, 7.062088877818249e+00
89, 2.232000045500000e-02, -2.482329437156798e-02, 4.249580586713042e+109, 9.485670952484470e+109, 5.138370641621949e+00
90, 1.789999939500000e-02, -2.241364555514381e-02, 2.646814016998674e+109, 5.908067002229184e+109, 5.045496697226526e+00
91, 1.394999958600000e-02, -1.994492353858276e-02, 1.110418953138674e+110, 2.478613734684541e+110, 6.755014832449980e+00
92, 1.049000024800000e-02, -1.742916196961543e-02, 1.632238431247575e+109, 3.643389355463338e+109, 6.266702054149126e+00
93, 7.519999985000000e-03, -1.486756313872443e-02, 6.701671262562902e+109, 1.495908763964933e+110, 6.326732191966363e+00
94, 5.040000193000000e-03, -1.226032473458219e-02, 6.036785157872699e+109, 1.347496687025156e+110, 8.143005598460251e+00
95, 3.049999941000000e-03, -9.605565346412577e-03, 2.636112817815888e+109, 5.884180396910466e+109, 8.200883613147630e+00
96, 1.560000004000000e-03, -6.917517506923035e-03, 2.597943866063023e+109, 5.798981843890678e+109, 8.215935152101983e+00
97, 5.600000150000000e-04, -4.173159738460802e-03, 1.235264255292928e+109, 2.757286284135999e+109, 6.748895302136408e+00
98, 5.999999800000000e-05, -1.375329724321098e-03, 1.177998436760809e+109, 2.629460796341092e+109, 6.915069068019905e+00
99, 0.000000000000000e+00, 0.000000000000000e+00, 2.053332389413230e+108, 4.583331226368816e+108, 7.074029614334262e+00
100, 5.999999800000000e-05, 1.690936710231038e-03, 1.135534008587731e+107, 2.534674126311899e+107, 1.975238231841327e+01
101, 5.600000150000000e-04, 6.510108078911841e-03, 3.766310569396343e+107, 8.406943235259694e+107, 3.605056714839562e+00
102, 1.560000004000000e-03, 1.267190171358039e-02, 3.819509329057704e+107, 8.525690466646662e+107, 3.583560509560364e+00
103, 3.049999941000000e-03, 1.984713584230587e-02, 7.290754368860920e+106, 1.627400528763598e+107, 2.647041279452669e+00
104, 5.040000193000000e-03, 2.786279589703288e-02, 8.675432395531529e+106, 1.936480445431145e+107, 2.310266590966036e+00
105, 7.519999985000000e-03, 3.648497190130289e-02, 2.697624078843838e+106, 6.021482318847852e+106, 5.787590415015463e+00
106, 1.049000024800000e-02, 4.555050983887998e-02, 1.046065858208153e+106, 2.334968433500342e+106, 9.972803440807487e+00
107, 1.394999958600000e-02, 5.491250562711000e-02, 1.837074446486976e+107, 4.100612603765571e+107, 4.396622446073554e+00
108, 1.789999939500000e-02, 6.443881735595008e-02, 3.428322340875819e+107, 7.652505225169238e+107, 4.888940364775176e+00
109, 2.232000045500000e-02, 7.396988194034565e-02, 1.916692755863727e+107, 4.278332044338676e+107, 7.561228698809090e+00
110, 2.723000012300000e-02, 8.344858536983889e-02, 3.475213609450072e+107, 7.757173235379624e+107, 6.081982218042740e+00
111, 3.260000050100000e-02, 9.272944279023633e-02, 2.026296273572603e+108, 4.522982753510275e+108, 5.249401619947910e+00
112, 3.844000026600000e-02, 1.017571000583034e-01, 2.381574637047961e+108, 5.316014814839198e+108, 5.090180216424091e+00
0, 9.997500181200000e-01, -3.632896519016437e-05, 8.984962300190878e+116, 2.005571942006892e+117, 3.844147110105614e+00
199, 1.000000000000000e+00, 0.000000000000000e+00, 8.787789319667489e+116, 1.961560115997207e+117, 3.933888816503957e+00
1, 9.990000128750000e-01, -1.452537504052920e-04, 1.647207621548709e+117, 3.676802726671227e+117, 2.709625903432328e+00
2, 9.977599978450000e-01, -3.251111630156300e-04, 1.035059195477848e+117, 2.310399989905910e+117, 7.951218561213405e-01
3, 9.960200190539999e-01, -5.769983605901485e-04, 1.116107546946418e+117, 2.491311488719684e+117, 7.003626633376728e-01
4, 9.937800168990000e-01, -9.004365425509819e-04, 2.314656753059082e+116, 5.166644538078307e+116, 2.733210654023249e-01
5, 9.910500049590000e-01, -1.293363843462116e-03, 1.851225625941916e+116, 4.132200057906063e+116, 2.096931744894134e-01
6, 9.878399968150000e-01, -1.753609743384430e-03, 4.023932383738010e+115, 8.981991927986628e+115, 5.972217406175298e-01
7, 9.841300249100000e-01, -2.283176811071472e-03, 2.914450298464465e+115, 6.505469416215324e+115, 5.948172245229411e-01
183, 9.375399947170000e-01, -2.982996835613096e-02, 2.339577429462529e+112, 5.222271047907431e+112, 3.058224985355604e+00
184, 9.449599981310000e-01, -2.417186498962610e-02, 2.006904482192230e+111, 4.479697504893370e+111, 8.751631271113402e+00
185, 9.519400000570000e-01, -1.839954941388300e-02, 2.105698849136735e+112, 4.700220645394499e+112, 3.698210400024055e+00
