"PointID"	"x"	"y"	"Conservative_1"	"Conservative_2"	"Conservative_3"	"Conservative_4"	"Pressure"	"Temperature"	"Pressure_Coefficient"	"Mach"
0	9.997500181200000e-01	-3.632544925910929e-05	1.176575356322866e+00	6.431622012722457e-01	8.473466229106436e-02	3.377147659744629e+00	1.279323045762272e+00	1.087327759235518e+00	6.234889414336433e-01	4.468824032997836e-01	
1	9.990000128750000e-01	-1.450316386285464e-04	1.160507095883000e+00	6.963729246819473e-01	9.670270583617209e-02	3.343230255668588e+00	1.252107502311149e+00	1.078931362637169e+00	5.627399605159565e-01	4.929248575061886e-01	
2	9.977599978450000e-01	-3.226727127489234e-04	1.145158622514684e+00	7.273036883563442e-01	9.994104173473307e-02	3.305738231204581e+00	1.228167045735324e+00	1.072486397594737e+00	5.093014413734915e-01	5.231813437578974e-01	
3	9.960200190539999e-01	-5.638106299071996e-04	1.130027760787052e+00	7.519329752376761e-01	1.000329598286846e-01	3.270271567351431e+00	1.206268687733927e+00	1.067468189360034e+00	4.604211779775167e-01	5.491083182558256e-01	
4	9.937800168990000e-01	-8.526725397976209e-04	1.117632562345009e+00	7.744083883928239e-01	9.324266668791963e-02	3.239792111803620e+00	1.187043397865587e+00	1.062105237319625e+00	4.175075845213990e-01	5.723328480219760e-01	
5	9.910500049590000e-01	-1.160899118270904e-03	1.107292031985913e+00	7.930270671690171e-01	8.048946048680837e-02	3.216285517926952e+00	1.171753066629992e+00	1.058215026191843e+00	3.833773808705189e-01	5.914259318484926e-01	
6	9.878399968150000e-01	-1.451113433489742e-03	1.101305299445800e+00	8.055061762474202e-01	6.197850411191585e-02	3.202244371929523e+00	1.162369029210915e+00	1.055446686578049e+00	3.624308687743629e-01	6.034770598941969e-01	
7	9.841300249100000e-01	-1.686459083952324e-03	1.101498393777049e+00	8.088516839436946e-01	4.017326106260023e-02	3.204555498867961e+00	1.162738060845171e+00	1.055596692118752e+00	3.632546001008276e-01	6.047933397415521e-01	
8	9.799500107769999e-01	-1.837566022934147e-03	1.108221067467059e+00	8.045560080427171e-01	2.095953659203270e-02	3.222656736649094e+00	1.172163694763835e+00	1.057698440477154e+00	3.842939615264184e-01	5.968047199738475e-01	
9	9.752799868580000e-01	-1.902868925348373e-03	1.119886237725655e+00	7.892891529355407e-01	6.856829298805696e-03	3.252346971251352e+00	1.189673132746967e+00	1.062316057355112e+00	4.233775284530518e-01	5.779466136003654e-01	
10	9.701499938960000e-01	-1.913092101239578e-03	1.133255394121625e+00	7.711351236168075e-01	3.582309497798132e-03	3.286664773136419e+00	1.209718301698238e+00	1.067471911427238e+00	4.681212091478537e-01	5.566281041655492e-01	
11	9.645400047300000e-01	-1.931254194288119e-03	1.146274190887291e+00	7.484012334212113e-01	9.144296936159617e-03	3.318129957049606e+00	1.229511315044844e+00	1.072615369707593e+00	5.123020425108120e-01	5.328345411374813e-01	
12	9.584699869160000e-01	-2.039795471308013e-03	1.156093905369614e+00	7.296981928334272e-01	2.408730521956780e-02	3.342577845784823e+00	1.244817236238787e+00	1.076744052067992e+00	5.464670451758634e-01	5.143590525430001e-01	
13	9.519400000570000e-01	-2.323733437762065e-03	1.163066771703616e+00	7.132762549552317e-01	4.406328311271605e-02	3.358549923471401e+00	1.255599630741352e+00	1.079559369495354e+00	5.705348900476616e-01	4.997961983793570e-01	
14	9.449599981310000e-01	-2.855441779841277e-03	1.165792831186587e+00	7.030398499164646e-01	6.741500341304066e-02	3.364906776600411e+00	1.260388361594281e+00	1.081142659207650e+00	5.812240214158069e-01	4.924255677400625e-01	
15	9.375399947170000e-01	-3.686672692489323e-03	1.166111199140307e+00	6.974581831537572e-01	9.163254037684085e-02	3.364397266918569e+00	1.260888023086889e+00	1.081275974380878e+00	5.823393372475193e-01	4.903002183365296e-01	
16	9.296900033950000e-01	-4.847795132739557e-03	1.162808535895745e+00	6.967166595288792e-01	1.155817553208614e-01	3.355554030119364e+00	1.256433929823016e+00	1.080516603582678e+00	5.723971647835190e-01	4.938142560731882e-01	
17	9.214000105860000e-01	-6.354468621617319e-03	1.157598641351227e+00	7.009103938188144e-01	1.388369383195228e-01	3.341989286729071e+00	1.248587063200946e+00	1.078601009537738e+00	5.548818375021124e-01	5.023046057104276e-01	
18	9.126999974250000e-01	-8.199286815639657e-03	1.149306562944635e+00	7.081335546690765e-01	1.595800277425436e-01	3.320699602429293e+00	1.236586478471018e+00	1.075941370510200e+00	5.280948180156654e-01	5.146093671787088e-01	
19	9.035800099370001e-01	-1.036659728215263e-02	1.139343443937299e+00	7.203265423335381e-01	1.790518877520723e-01	3.295685696826636e+00	1.221564211361698e+00	1.072165041947548e+00	4.945629717895055e-01	5.317391989392959e-01	
20	8.940600156780000e-01	-1.281827618452066e-02	1.126833066138120e+00	7.334836667931134e-01	1.936696957162365e-01	3.263059375914752e+00	1.203077965371595e+00	1.067662994213315e+00	4.532990298473109e-01	5.506610051443221e-01	
21	8.841500282290000e-01	-1.550322135126808e-02	1.112996380206388e+00	7.520824094227033e-01	2.065897722782105e-01	3.228867388354898e+00	1.182237114736688e+00	1.062211104871213e+00	4.067792739658208e-01	5.746432639148067e-01	
22	8.738499879840000e-01	-1.836233985994869e-02	1.097657801078847e+00	7.691760171500130e-01	2.132925634366005e-01	3.189229495359752e+00	1.159603621601101e+00	1.056434546778941e+00	3.562580839310285e-01	5.979435666046580e-01	
23	8.631799817090000e-01	-2.132685897167104e-02	1.082363187300709e+00	7.893484698539088e-01	2.177203202005178e-01	3.152068209823391e+00	1.136936680007209e+00	1.050420684430889e+00	3.056622321589495e-01	6.238382942041202e-01	
24	8.521599769590000e-01	-2.433193557734618e-02	1.067644519306319e+00	8.064986010345789e-01	2.164131457798730e-01	3.114491908677504e+00	1.115177511364483e+00	1.044521365678014e+00	2.570926592957211e-01	6.467740388970643e-01	
25	8.407700061800000e-01	-2.733442237185703e-02	1.055681795740407e+00	8.229986765640027e-01	2.123430583921809e-01	3.085619497000310e+00	1.097385270908037e+00	1.039503830923202e+00	2.173778368482978e-01	6.673961539222398e-01	
26	8.290500044819999e-01	-3.029057568057765e-02	1.043095966293967e+00	8.357777932423787e-01	2.056186917483043e-01	3.052927396210148e+00	1.079131569969233e+00	1.034546776940666e+00	1.766329686813226e-01	6.856274271127709e-01	
27	8.170099854470000e-01	-3.318184364390691e-02	1.034241206570988e+00	8.479905885466542e-01	1.978813500876330e-01	3.031295346793508e+00	1.065889854684869e+00	1.030600838482168e+00	1.470755684930116e-01	7.009284632176860e-01	
28	8.046399950980000e-01	-3.600920186972455e-02	1.025517936470495e+00	8.548755112092967e-01	1.892963308476968e-01	3.006718227429972e+00	1.053173525629901e+00	1.026967435844748e+00	1.186909054238868e-01	7.120518302116929e-01	
29	7.919700145720000e-01	-3.877542763750645e-02	1.014419839034017e+00	8.663086371413344e-01	1.867752381581073e-01	2.981145145631621e+00	1.037615730815013e+00	1.022866165357220e+00	8.396368485493902e-02	7.300415121463525e-01	
30	7.790099978450000e-01	-4.149438407450585e-02	1.008323871345230e+00	8.729173282081678e-01	1.800628739423143e-01	2.967076990552102e+00	1.029260927444728e+00	1.020764217425067e+00	6.531457018912394e-02	7.394261879614884e-01	
31	7.657799720760000e-01	-4.417917421010122e-02	1.002060291390343e+00	8.841382194046631e-01	1.829573267991124e-01	2.961294620992416e+00	1.021818301983350e+00	1.019717387030268e+00	4.870156692712004e-02	7.540971802228201e-01	
32	7.522799968720000e-01	-4.684423335616984e-02	1.011648501967642e+00	8.841134303231023e-01	1.894403400202943e-01	2.991978061731098e+00	1.035165087053808e+00	1.023245806266135e+00	7.849349788796342e-02	7.467443986590644e-01	
33	7.385200262070000e-01	-4.949642614588430e-02	1.046697618183071e+00	8.595638756237228e-01	1.851545109383476e-01	3.081160792601491e+00	1.084736408661450e+00	1.036341718771090e+00	1.891437693335946e-01	6.974131792378199e-01	
34	7.245299816130000e-01	-5.213212997573831e-02	1.048096121202160e+00	8.524948297163416e-01	1.808193018434544e-01	3.091115368308593e+00	1.091527558417455e+00	1.041438410405985e+00	2.043025857532484e-01	6.885978780875026e-01	
35	7.103199958800001e-01	-5.474484844471574e-02	1.088823479582403e+00	8.410167216479564e-01	1.425999923224085e-01	3.182259828683980e+00	1.139247026098829e+00	1.046310120475878e+00	3.108192546848857e-01	6.473031691195011e-01	
36	6.958900094030001e-01	-5.732399597419083e-02	9.669857142410924e-01	8.557053772902097e-01	1.332685524957482e-01	2.848557435668734e+00	9.843033714104232e-01	1.017908906940701e+00	-3.503711738744814e-02	7.502220769730827e-01	
37	6.812700033190000e-01	-5.984926826027237e-02	8.171148859107276e-01	9.116017335319818e-01	1.447133862291224e-01	2.448738988073068e+00	7.709668560219248e-01	9.435232050174100e-01	-5.112346963796321e-01	9.828473906809200e-01	
38	6.664699912070000e-01	-6.230152429691781e-02	7.374264355471684e-01	8.873139755257631e-01	1.255350680815732e-01	2.226687686634255e+00	6.728675468056684e-01	9.124537911451501e-01	-7.302063687373473e-01	1.075208368896796e+00	
39	6.514999866490000e-01	-6.466082330345789e-02	6.644102350596176e-01	9.126072967256235e-01	1.375056179821983e-01	2.062174107640817e+00	5.684738718692414e-01	8.556067349236910e-01	-9.632279645775863e-01	1.269173977781589e+00	
40	6.363800168040000e-01	-6.690653373535034e-02	6.616730267704383e-01	9.123683876259869e-01	1.254967353345368e-01	2.053514117689934e+00	5.650356664350265e-01	8.539499776693494e-01	-9.709025302789588e-01	1.272965514313577e+00	
41	6.211299896240000e-01	-6.902044194151316e-02	6.520675962800745e-01	9.068056745499556e-01	1.210040639062349e-01	2.023499736093262e+00	5.526969024001586e-01	8.476067597181530e-01	-9.984444142853603e-01	1.287932001638485e+00	
42	6.057599782940000e-01	-7.098889009589313e-02	6.624043638855635e-01	9.145682200362353e-01	1.112303402998058e-01	2.052619239256808e+00	5.647670115826837e-01	8.526015865442770e-01	-9.715022062886525e-01	1.273046481665273e+00	
43	5.902799963950000e-01	-7.280171037664672e-02	6.709696674649109e-01	9.227782120709216e-01	1.023962725514835e-01	2.077469005131265e+00	5.740446530330334e-01	8.555448641991760e-01	-9.507931851941218e-01	1.264347629042982e+00	
44	5.747100114820000e-01	-7.445143196597816e-02	6.807895233307282e-01	9.295866329822546e-01	9.315463053501900e-02	2.105244082465812e+00	5.856867854341395e-01	8.603052270380085e-01	-9.248062825130814e-01	1.250421604612233e+00	
45	5.590599775310000e-01	-7.593557992837496e-02	6.890753348032567e-01	9.331848502132510e-01	8.325239243520996e-02	2.127040561428563e+00	5.960501979324561e-01	8.650000483657412e-01	-9.016736653293391e-01	1.235521544866857e+00	
46	5.433599948880000e-01	-7.725350737704058e-02	6.991607112050163e-01	9.385078052216944e-01	7.393148107655914e-02	2.154728236910060e+00	6.083693933892383e-01	8.701424202465591e-01	-8.741754611847359e-01	1.219958472627644e+00	
47	5.276100039480000e-01	-7.841048219988794e-02	7.088772115718551e-01	9.425273735948911e-01	6.401145655210277e-02	2.180660613000643e+00	6.204701962515861e-01	8.752858550435887e-01	-8.471647405098526e-01	1.203880146360742e+00	
48	5.118399858470000e-01	-7.941210047147480e-02	7.186102158569448e-01	9.469515331760335e-01	5.534759913773973e-02	2.207121568560819e+00	6.324262028441919e-01	8.800684834267518e-01	-8.204772257942144e-01	1.189193877614868e+00	
49	4.960500001910000e-01	-8.026813923320227e-02	7.249753822564745e-01	9.494433506371650e-01	4.712660420649171e-02	2.224286987955680e+00	6.404198218604128e-01	8.833676805233254e-01	-8.026343262044358e-01	1.179085673322511e+00	
50	4.802699983120000e-01	-8.098813793702339e-02	7.317929450837399e-01	9.524210430558137e-01	3.958324845795184e-02	2.242805071049948e+00	6.487805589049844e-01	8.865630138464152e-01	-7.839719667299455e-01	1.169221234016180e+00	
51	4.645099937920000e-01	-8.158373347549983e-02	7.367432129593117e-01	9.546234200957607e-01	3.241980136854140e-02	2.256526962938483e+00	6.549378099330708e-01	8.889634792865631e-01	-7.702281028279669e-01	1.162144853640902e+00	
52	4.487800002100000e-01	-8.206676818629521e-02	7.427555888873932e-01	9.571143512056201e-01	2.592700700896616e-02	2.273077526039854e+00	6.623826245695490e-01	8.917908319771268e-01	-7.536102130143996e-01	1.153670172559722e+00	
53	4.331099987030000e-01	-8.244837775284061e-02	7.467822396389577e-01	9.587147829672984e-01	1.999309525962628e-02	2.284149190082386e+00	6.673941088757451e-01	8.936930653283964e-01	-7.424238641166404e-01	1.147972927983856e+00	
54	4.174999892710000e-01	-8.273989331082619e-02	7.503280453831338e-01	9.605820290158689e-01	1.488427758816765e-02	2.294274971037301e+00	6.717004245004349e-01	8.952090070916251e-01	-7.328115524543865e-01	1.143692224484078e+00	
55	4.019699990750000e-01	-8.295106708950822e-02	7.498809329804266e-01	9.612552518303999e-01	1.082076965137018e-02	2.293914493377362e+00	6.710923353429447e-01	8.949318562823916e-01	-7.341688943237843e-01	1.145288573053520e+00	
56	3.865399956700000e-01	-8.309038776938558e-02	7.502432509142671e-01	9.621900302404308e-01	6.332967353203755e-03	2.295541248819460e+00	6.714032800442867e-01	8.949141218212843e-01	-7.334748213297171e-01	1.145812256721457e+00	
57	3.712300062180000e-01	-8.316479058843654e-02	7.484743162330474e-01	9.628005197724242e-01	2.879536726027723e-03	2.292041573502559e+00	6.691145740329205e-01	8.939713220895386e-01	-7.385835401050882e-01	1.149835054816758e+00	
58	3.560400009160000e-01	-8.317943592552632e-02	7.478359257452569e-01	9.634614247154227e-01	-1.070713353993648e-03	2.290972770981884e+00	6.681370436322377e-01	8.934273155791559e-01	-7.407655276066123e-01	1.151952690512081e+00	
59	3.409900069240000e-01	-8.313740417237422e-02	7.451164443244089e-01	9.638309986287517e-01	-4.192988629787398e-03	2.284939885140765e+00	6.646222370238891e-01	8.919709692174314e-01	-7.486110780716762e-01	1.157554569311490e+00	
60	3.261100053790000e-01	-8.303994542649668e-02	7.421992721828802e-01	9.641051233321200e-01	-7.928620824752500e-03	2.278047512952298e+00	6.607306022134805e-01	8.902334278369847e-01	-7.572977629163383e-01	1.163596979659522e+00	
61	3.113999962810000e-01	-8.288620340188398e-02	7.389569609455636e-01	9.641807971975508e-01	-1.139755967266682e-02	2.270579677611690e+00	6.565867649856534e-01	8.885318085988259e-01	-7.665473995855951e-01	1.169955023632100e+00	
62	2.968699932100000e-01	-8.267337073237201e-02	7.361970869835642e-01	9.641449553337371e-01	-1.568357295752358e-02	2.264142686595536e+00	6.530558389647658e-01	8.870665892479218e-01	-7.744289308822192e-01	1.175340120825961e+00	
63	2.825500071050000e-01	-8.239724013529905e-02	7.344666682681702e-01	9.638942209576693e-01	-2.035435702400055e-02	2.260183914177178e+00	6.509630000853219e-01	8.863070690740197e-01	-7.791004462381207e-01	1.178414205568577e+00	
64	2.684499919410000e-01	-8.205182855467827e-02	7.328129826067354e-01	9.641235932840815e-01	-2.567995331546374e-02	2.256700070344575e+00	6.488106821498695e-01	8.853700706037495e-01	-7.839047273440414e-01	1.182135121852725e+00	
65	2.545700073240000e-01	-8.162943776771843e-02	7.325494280949595e-01	9.642075326644676e-01	-3.190892654919630e-02	2.256682105074943e+00	6.485700306849997e-01	8.853600942282445e-01	-7.844418957924113e-01	1.182897954900074e+00	
66	2.409400045870000e-01	-8.112217236086126e-02	7.326175549796575e-01	9.651661170499765e-01	-3.882372668140428e-02	2.258025823081481e+00	6.484927323328921e-01	8.851722538247104e-01	-7.846144367569374e-01	1.184398645548482e+00	
67	2.275699973110000e-01	-8.052088823628312e-02	7.332929947878564e-01	9.650443100337054e-01	-4.666322957249206e-02	2.260180910226155e+00	6.494707290120780e-01	8.856906224775429e-01	-7.824314084551830e-01	1.183237124129369e+00	
68	2.144699990750000e-01	-7.981591390644413e-02	7.341021806335646e-01	9.660077963500825e-01	-5.550520818596475e-02	2.263436015856972e+00	6.503004083506072e-01	8.858445397742418e-01	-7.805794456459660e-01	1.183578494878654e+00	
69	2.016600072380000e-01	-7.899803028261926e-02	7.369419226559975e-01	9.661632937106291e-01	-6.605124657399576e-02	2.271490747944850e+00	6.540757600538469e-01	8.875540119857830e-01	-7.721523213083774e-01	1.178876673297347e+00	
70	1.891400069000000e-01	-7.805691251530622e-02	7.420891416247163e-01	9.683228345563240e-01	-7.787462181847163e-02	2.287036758646716e+00	6.604750249180691e-01	8.900211414925672e-01	-7.578682479507387e-01	1.172734882878220e+00	
71	1.769299954180000e-01	-7.698398956724821e-02	7.505068627035251e-01	9.697752307912333e-01	-9.179639383699204e-02	2.310176064797369e+00	6.712038304665064e-01	8.943340345332115e-01	-7.339200212801196e-01	1.159950621304376e+00	
72	1.650400012730000e-01	-7.577075823766512e-02	7.594217639715453e-01	9.728794181823842e-01	-1.059952492402897e-01	2.335996257065752e+00	6.821725591884014e-01	8.982789163439907e-01	-7.094362518116041e-01	1.149128879322641e+00	
73	1.534900069240000e-01	-7.441085915056631e-02	7.684674737166269e-01	9.726294411836167e-01	-1.218886570787192e-01	2.359839557586638e+00	6.938628121537994e-01	9.029176066463708e-01	-6.833419371566978e-01	1.134534194420365e+00	
74	1.422899961470000e-01	-7.289830892403289e-02	7.776778504953883e-01	9.733072024132844e-01	-1.392432457567004e-01	2.385390003224674e+00	7.055400503166925e-01	9.072394820905043e-01	-6.572766734002399e-01	1.121823783238679e+00	
75	1.314399987460000e-01	-7.122686435984460e-02	7.897699644927174e-01	9.711135888258680e-01	-1.588052153164326e-01	2.416495973941053e+00	7.213926354082693e-01	9.134212085054818e-01	-6.218914388208275e-01	1.101794146737353e+00	
76	1.209499984980000e-01	-6.939279843967093e-02	8.064339112659972e-01	9.719603302586608e-01	-1.800580277483410e-01	2.462274726573245e+00	7.425768827280842e-01	9.208155465118456e-01	-5.746051724819550e-01	1.079584295369941e+00	
77	1.108499988910000e-01	-6.739812068857300e-02	8.234677269572545e-01	9.683068099182499e-01	-2.026169926118535e-01	2.506715567869982e+00	7.649910044231480e-01	9.289872321406207e-01	-5.245736508411875e-01	1.053423607533241e+00	
78	1.011300012470000e-01	-6.523911628503117e-02	8.406314534697402e-01	9.677405996992422e-01	-2.267817314603802e-01	2.555027656630555e+00	7.869611325187236e-01	9.361547551789908e-01	-4.755331863421349e-01	1.032819445035052e+00	
79	9.181000292300000e-02	-6.291968763384548e-02	8.588871682842690e-01	9.615225870876748e-01	-2.526035515849479e-01	2.603334286327080e+00	8.111907397027363e-01	9.444671775958512e-01	-4.214492417349637e-01	1.006603308374291e+00	
80	8.290000259900000e-02	-6.044375831418738e-02	8.790939497710534e-01	9.557264735142035e-01	-2.793924383221839e-01	2.658398083898865e+00	8.377921648689413e-01	9.530177805081376e-01	-3.620710605603990e-01	9.805972816613774e-01	
81	7.440000027400000e-02	-5.781391654789066e-02	9.008682611449079e-01	9.409139249674406e-01	-3.063523082794846e-01	2.712374258488626e+00	8.675659208340839e-01	9.630330629380814e-01	-2.956117838524913e-01	9.459829588981896e-01	
82	6.633000075800000e-02	-5.504053185263208e-02	9.254869868946147e-01	9.300666587867509e-01	-3.360921860532687e-01	2.778754997667475e+00	9.001577098092138e-01	9.726314065523592e-01	-2.228622548901477e-01	9.157078561878983e-01	
83	5.869000032500000e-02	-5.212934334811887e-02	9.511899687746993e-01	9.098975862683731e-01	-3.645691185004175e-01	2.843104482306625e+00	9.352160585892874e-01	9.832063933495967e-01	-1.446070120774836e-01	8.783515127553403e-01	
84	5.149000138000000e-02	-4.909091036996238e-02	9.777006185973783e-01	8.920120354644748e-01	-3.953883673209680e-01	2.913882622906910e+00	9.708068427438721e-01	9.929489910077013e-01	-6.516329744671412e-02	8.464261518386382e-01	
85	4.473999887700000e-02	-4.593774807526974e-02	1.005711974027784e+00	8.623617959663910e-01	-4.234788996947114e-01	2.983217699684465e+00	1.009735075032383e+00	1.004000251670951e+00	2.173007819728353e-02	8.057435344378795e-01	
86	3.844000026600000e-02	-4.267902458423945e-02	1.036073278389521e+00	8.341131544736561e-01	-4.531198835472218e-01	3.062133685914422e+00	1.050915510299664e+00	1.014325465408406e+00	1.136506926331779e-01	7.688369985931934e-01	
