"PointID"	"x"	"y"	"Conservative_1"	"Conservative_2"	"Conservative_3"	"Conservative_4"	"Pressure"	"Temperature"	"Pressure_Coefficient"	"Mach"
0	9.997500181200000e-01	-3.633629069224024e-05	1.207709274125122e+00	5.671464251441610e-01	8.485006815901298e-02	3.453419874281103e+00	1.326908717069946e+00	1.098698789103175e+00	7.297069577454158e-01	3.828566716957228e-01	
1	9.990000128750000e-01	-1.457161831097492e-04	1.203452507077798e+00	6.059150712784696e-01	8.687835963188520e-02	3.448337019781037e+00	1.317067137061902e+00	1.094407240265743e+00	7.077391452274600e-01	4.109115399665295e-01	
2	9.977599978450000e-01	-3.301809216226233e-04	1.197099534644609e+00	6.168051501036840e-01	9.321413385767817e-02	3.431889854647202e+00	1.307742556307646e+00	1.092425916526553e+00	6.869253489009959e-01	4.213677053604069e-01	
3	9.960200190539999e-01	-6.043541039367102e-04	1.195568614088003e+00	6.207534519287942e-01	1.046450490219323e-01	3.428733533651451e+00	1.305201035140059e+00	1.091698978845882e+00	6.812523105804882e-01	4.259063151293785e-01	
4	9.937800168990000e-01	-9.991695365788259e-04	1.194830909876026e+00	6.200968694850741e-01	1.197737718531440e-01	3.426617356208991e+00	1.303881698854185e+00	1.091268804712689e+00	6.783073635138064e-01	4.276388062533921e-01	
5	9.910500049590000e-01	-1.565814407190676e-03	1.193921352453952e+00	6.187922074706109e-01	1.440810547905649e-01	3.423597292496004e+00	1.301819195557582e+00	1.090372655520282e+00	6.737035615124592e-01	4.307074040168852e-01	
6	9.878399968150000e-01	-2.371554649880724e-03	1.188950206409527e+00	6.193801676219313e-01	1.721355545966693e-01	3.409593517499939e+00	1.294320207882331e+00	1.088624402354921e+00	6.569647497373461e-01	4.379719040749358e-01	
7	9.841300249100000e-01	-3.491355378055118e-03	1.179169558318387e+00	6.284431732587588e-01	2.078106343451689e-01	3.384352987528845e+00	1.279430239700363e+00	1.085026517751152e+00	6.237282136168806e-01	4.554483163537648e-01	
8	9.799500107769999e-01	-4.957971055330223e-03	1.163050259250913e+00	6.452360268549523e-01	2.372448454072409e-01	3.341250811445070e+00	1.255228746971697e+00	1.079255807724211e+00	5.697070244903950e-01	4.808713368677550e-01	
9	9.752799868580000e-01	-6.765263200690748e-03	1.139588252117320e+00	6.791856804647973e-01	2.690131239660042e-01	3.283736671903680e+00	1.219836060325863e+00	1.070418248046560e+00	4.907054917988016e-01	5.236536088645455e-01	
10	9.701499938960000e-01	-8.823640039498589e-03	1.111241005256748e+00	7.159188818413248e-01	2.808342029952335e-01	3.209400128321038e+00	1.177319109687271e+00	1.059463342441414e+00	3.958015841233719e-01	5.682353419882259e-01	
11	9.645400047300000e-01	-1.101356973443617e-02	1.078458511707732e+00	7.653194041325092e-01	2.854050682938061e-01	3.131396872818298e+00	1.128832182716698e+00	1.046708955849586e+00	2.875718364212010e-01	6.256591112962271e-01	
12	9.584699869160000e-01	-1.318908903608857e-02	1.050415108148888e+00	8.068027056730789e-01	2.689565859352143e-01	3.060728879724245e+00	1.086580613540016e+00	1.034429726981805e+00	1.932602980803939e-01	6.727817884140073e-01	
13	9.519400000570000e-01	-1.524663827131745e-02	1.029266486254363e+00	8.409328711582899e-01	2.459016634114438e-01	3.011914186615070e+00	1.055603969273385e+00	1.025588594762148e+00	1.241160028423781e-01	7.103937747974768e-01	
14	9.449599981310000e-01	-1.714447642469275e-02	1.022975239211166e+00	8.586387615181083e-01	2.178564223061564e-01	2.996800672046234e+00	1.045300730702106e+00	1.021824078076568e+00	1.011177024600586e-01	7.240035452105558e-01	
15	9.375399947170000e-01	-1.890989371352298e-02	1.023540536355174e+00	8.657091173406449e-01	1.972270583281697e-01	3.000535093135002e+00	1.046170155183473e+00	1.022109157404634e+00	1.030583821059675e-01	7.251737057017237e-01	
16	9.296900033950000e-01	-2.061680121273815e-02	1.029368117648818e+00	8.646352121086711e-01	1.852563921090459e-01	3.015736628017171e+00	1.054373493473435e+00	1.024291966494680e+00	1.213694050746317e-01	7.173529280048921e-01	
17	9.214000105860000e-01	-2.235579662254902e-02	1.031754786216215e+00	8.607473400363027e-01	1.826262425723565e-01	3.021133883690882e+00	1.058371704921028e+00	1.025797717694556e+00	1.302939841987226e-01	7.116491895874109e-01	
18	9.126999974250000e-01	-2.419176219188326e-02	1.031623824250419e+00	8.588179439673259e-01	1.844566530595154e-01	3.020002338969832e+00	1.058412975403158e+00	1.025967945410920e+00	1.303861058106199e-01	7.104634275201963e-01	
19	9.035800099370001e-01	-2.616423701765321e-02	1.023486665749687e+00	8.609012973871671e-01	1.908922528206169e-01	2.998795925633492e+00	1.047568975688443e+00	1.023529676296385e+00	1.061807493045612e-01	7.197458298419279e-01	
20	8.940600156780000e-01	-2.827067872850473e-02	1.015721394586351e+00	8.653954039268320e-01	1.953520520003809e-01	2.980560069579692e+00	1.037246170015073e+00	1.021191613707702e+00	8.313877235507371e-02	7.304910362907384e-01	
21	8.841500282290000e-01	-3.048319398522399e-02	1.009672347407388e+00	8.722094811091514e-01	1.950520101763127e-01	2.969135258792236e+00	1.029425611340865e+00	1.019564033801856e+00	6.568216817157334e-02	7.409106621899748e-01	
22	8.738499879840000e-01	-3.276105082744676e-02	1.005122508042415e+00	8.834119367705144e-01	2.009254536812062e-01	2.967991093549821e+00	1.023875512577801e+00	1.018657431691495e+00	5.329355486116236e-02	7.547764157079097e-01	
23	8.631799817090000e-01	-3.505536271401356e-02	1.028008495396221e+00	8.733422438896705e-01	1.810285577822108e-01	3.023378457661399e+00	1.054586511517783e+00	1.025853887628933e+00	1.218448917807667e-01	7.239625048454672e-01	
24	8.521599769590000e-01	-3.732202894472012e-02	1.019290791398681e+00	8.764454354157630e-01	1.721854901354627e-01	3.004125051156100e+00	1.045108933069791e+00	1.025329515275697e+00	1.006895827450685e-01	7.313990257690616e-01	
25	8.407700061800000e-01	-3.953385976801679e-02	1.016607885429289e+00	8.789453564727832e-01	1.505764877267346e-01	2.978161354864690e+00	1.034819125828454e+00	1.017913731203723e+00	7.772126300994205e-02	7.348017505387703e-01	
26	8.290500044819999e-01	-4.166200416827558e-02	9.499098704248742e-01	8.829719451592709e-01	1.328148770371353e-01	2.786969394672623e+00	9.469235694183845e-01	9.968562269964056e-01	-1.184741754053917e-01	7.956875241517687e-01	
27	8.170099854470000e-01	-4.369383111937135e-02	8.378645657036182e-01	9.081224205774059e-01	1.453728003569673e-01	2.490485838721175e+00	7.942954567290621e-01	9.479998191140023e-01	-4.591619269440578e-01	9.527893600336393e-01	
28	8.046399950980000e-01	-4.562805110188293e-02	7.473789408787926e-01	8.960493966896069e-01	1.232364759677326e-01	2.240431200627785e+00	6.772496004186113e-01	9.061662877766923e-01	-7.204249990655999e-01	1.074464773937029e+00	
29	7.919700145720000e-01	-4.746329162684390e-02	6.758405988582911e-01	9.139276130928402e-01	1.286217837590419e-01	2.086213588241880e+00	5.824120183786482e-01	8.617594435174903e-01	-9.321160304048032e-01	1.243281136357314e+00	
30	7.790099978450000e-01	-4.920601642473751e-02	6.730498793272799e-01	9.175850629401962e-01	1.165665620893669e-01	2.080286259345639e+00	5.778836844761144e-01	8.586045436241888e-01	-9.422239185801019e-01	1.253472661280807e+00	
31	7.657799720760000e-01	-5.086381837857654e-02	6.708351546780473e-01	9.204998724274955e-01	1.110454756793236e-01	2.074247397248500e+00	5.734061552759963e-01	8.547646188148713e-01	-9.522184034017941e-01	1.263449869777385e+00	
32	7.522799968720000e-01	-5.244741142519264e-02	6.741249010701098e-01	9.241225757459052e-01	1.047543122086150e-01	2.084932552301974e+00	5.773511398549875e-01	8.564453544714000e-01	-9.434126342522600e-01	1.259934048792023e+00	
33	7.385200262070000e-01	-5.396513176325094e-02	6.779407001249470e-01	9.279807062235385e-01	9.952929408440798e-02	2.095890932210475e+00	5.813857347904630e-01	8.575760898900325e-01	-9.344068419855738e-01	1.256407586351004e+00	
34	7.245299816130000e-01	-5.542104992131160e-02	6.813477976575048e-01	9.309396707284514e-01	9.463082828513186e-02	2.106141632671403e+00	5.854355935719925e-01	8.592316517125890e-01	-9.253669786339453e-01	1.252177158647234e+00	
35	7.103199958800001e-01	-5.681842819034696e-02	6.861666787329319e-01	9.338462733738394e-01	8.906947288488189e-02	2.119880508066921e+00	5.914541071900439e-01	8.619685646674317e-01	-9.119327964507949e-01	1.244521865214619e+00	
36	6.958900094030001e-01	-5.815777831227967e-02	6.904716539427321e-01	9.367984885474286e-01	8.463742785296141e-02	2.132147181631882e+00	5.965833551029205e-01	8.640229496697071e-01	-9.004835823595525e-01	1.238622537057004e+00	
37	6.812700033190000e-01	-5.943309792900750e-02	6.959039983948838e-01	9.400393733229462e-01	7.897295818278648e-02	2.147342367246552e+00	6.031801891923469e-01	8.667577576556450e-01	-8.857585062670827e-01	1.230583275913502e+00	
38	6.664699912070000e-01	-6.063693672674889e-02	7.015938230422518e-01	9.436839986435096e-01	7.401892470887896e-02	2.163490297255792e+00	6.099724646216828e-01	8.694096849038946e-01	-8.705971771837439e-01	1.222915433777847e+00	
39	6.514999866490000e-01	-6.175897799268316e-02	7.085831431437761e-01	9.470759889997691e-01	6.727593354779535e-02	2.182614044034335e+00	6.186001121293613e-01	8.730099186170499e-01	-8.513390354255329e-01	1.212030026601663e+00	
40	6.363800168040000e-01	-6.278622260217889e-02	7.155515503972435e-01	9.513283860439745e-01	6.139766125603335e-02	2.202628681019078e+00	6.270389221179362e-01	8.763015351861529e-01	-8.325024059867495e-01	1.202821886640373e+00	
41	6.211299896240000e-01	-6.370493160878299e-02	7.242431853212854e-01	9.548812542782074e-01	5.326417932265629e-02	2.226016646378903e+00	6.378298166541554e-01	8.806845954252293e-01	-8.084155878255460e-01	1.189228586088062e+00	
42	6.057599782940000e-01	-6.450217743643460e-02	7.340169909611015e-01	9.595440809859165e-01	4.563686924669830e-02	2.253394465396043e+00	6.499174030192070e-01	8.854255569318952e-01	-7.814343682606988e-01	1.175464225111589e+00	
43	5.902799963950000e-01	-6.516606828530402e-02	7.454020141504527e-01	9.634715263950202e-01	3.566152626155716e-02	2.283942319967982e+00	6.641681233467391e-01	8.910200277681071e-01	-7.496247246724573e-01	1.158078131844913e+00	
44	5.747100114820000e-01	-6.568634196869265e-02	7.570661259053361e-01	9.688777302359589e-01	2.751734803867907e-02	2.316880172781365e+00	6.785620554682850e-01	8.963048698775528e-01	-7.174954119011496e-01	1.142926626412285e+00	
45	5.590599775310000e-01	-6.605595125956540e-02	7.685149495321942e-01	9.717979362414293e-01	1.743248263227326e-02	2.347405372674443e+00	6.931126386838375e-01	9.018856940983971e-01	-6.850164315092913e-01	1.125521380009039e+00	
46	5.433599948880000e-01	-6.627082759455880e-02	7.802248476919014e-01	9.758080362727104e-01	8.976817440376114e-03	2.379848132204675e+00	7.078347720459037e-01	9.072189563557925e-01	-6.521545266832506e-01	1.109795382210113e+00	
47	5.276100039480000e-01	-6.633109352303625e-02	7.936534711634667e-01	9.773900375964619e-01	-1.468243468835197e-03	2.415312414687926e+00	7.253918308127679e-01	9.139906233250267e-01	-6.129646633643573e-01	1.088685879332100e+00	
48	5.118399858470000e-01	-6.624025848633801e-02	8.085661151358836e-01	9.806618980811613e-01	-9.927370434012551e-03	2.455745480869680e+00	7.443964813986702e-01	9.206377406423603e-01	-5.705435683065397e-01	1.068359979808911e+00	
49	4.960500001910000e-01	-6.600526013542403e-02	8.243550148391432e-01	9.812604293376805e-01	-1.997956838534305e-02	2.497123376927416e+00	7.651463475752381e-01	9.281757662680583e-01	-5.242269027338434e-01	1.044433699511391e+00	
50	4.802699983120000e-01	-6.563639556521120e-02	8.381878260944040e-01	9.826864260746327e-01	-2.659237140866835e-02	2.534273643870928e+00	7.831215782871354e-01	9.343032121286543e-01	-4.841036198947872e-01	1.025473935774363e+00	
51	4.645099937920000e-01	-6.514624612902568e-02	8.498307476584479e-01	9.818461551621926e-01	-3.449049979011910e-02	2.564257623514661e+00	7.985492379811739e-01	9.396567965814716e-01	-4.496668795063082e-01	1.007929482312945e+00	
52	4.487800002100000e-01	-6.454906682034484e-02	8.606152622359161e-01	9.830337082165272e-01	-4.003265033961340e-02	2.593970240589505e+00	8.126425422682013e-01	9.442576467409148e-01	-4.182086110084792e-01	9.942827713694714e-01	
53	4.331099987030000e-01	-6.386103262713967e-02	8.714314980158023e-01	9.816533441201730e-01	-4.612672932940009e-02	2.621867302975465e+00	8.270953133747811e-01	9.491225819333226e-01	-3.859479612170064e-01	9.783148534047944e-01	
54	4.174999892710000e-01	-6.309744212381641e-02	8.816363348019037e-01	9.815294013479960e-01	-4.988314830640510e-02	2.649188400823673e+00	8.405627271341635e-01	9.534120747451171e-01	-3.558867697898137e-01	9.648718346702696e-01	
55	4.019699990750000e-01	-6.227405501293211e-02	8.915684555799240e-01	9.794709657900952e-01	-5.412859839429180e-02	2.674749535038589e+00	8.540345549952553e-01	9.579012689942529e-01	-3.258157254570195e-01	9.501116416775146e-01	
56	3.865399956700000e-01	-6.140569136159255e-02	9.001016385670290e-01	9.784609610528071e-01	-5.620341927004505e-02	2.697446435775774e+00	8.655483047751437e-01	9.616117421507038e-01	-3.001153911269115e-01	9.384331390355954e-01	
57	3.712300062180000e-01	-6.050563120298805e-02	9.073610213361105e-01	9.762863392617633e-01	-5.881564952824961e-02	2.715901990672476e+00	8.755088256939356e-01	9.648957858083085e-01	-2.778820855046080e-01	9.274266090882162e-01	
58	3.560400009160000e-01	-5.958389453249492e-02	9.128499443188313e-01	9.755471287059985e-01	-5.991957324533658e-02	2.730741037673204e+00	8.829996820126227e-01	9.672999242734438e-01	-2.611614240789672e-01	9.200722567099767e-01	
59	3.409900069240000e-01	-5.864928731600576e-02	9.172326195296138e-01	9.742729324140501e-01	-6.144560021413438e-02	2.741945749208540e+00	8.889829622020543e-01	9.692012072771172e-01	-2.478058879418431e-01	9.136758898074839e-01	
60	3.261100053790000e-01	-5.770870754974684e-02	9.204473119934271e-01	9.736650813334665e-01	-6.219516526368013e-02	2.750555819708184e+00	8.933898635396587e-01	9.706040225212137e-01	-2.379690545989762e-01	9.093055194513926e-01	
61	3.113999962810000e-01	-5.676452704978231e-02	9.225704805904061e-01	9.730884822012285e-01	-6.329844830512206e-02	2.756305720802915e+00	8.963791463593755e-01	9.716104787850256e-01	-2.312965483049653e-01	9.062740770830530e-01	
62	2.968699932100000e-01	-5.581712824715338e-02	9.240427077651464e-01	9.729046910409744e-01	-6.431025518188661e-02	2.760497030835782e+00	8.984335725283802e-01	9.722857666409128e-01	-2.267107756062942e-01	9.044071842858592e-01	
63	2.825500071050000e-01	-5.486578992532354e-02	9.241400560496956e-01	9.730447758834873e-01	-6.563108316510219e-02	2.761281219098596e+00	8.986727842903119e-01	9.724421946731265e-01	-2.261768207805537e-01	9.044504167238754e-01	
64	2.684499919410000e-01	-5.390634852470739e-02	9.239141366265298e-01	9.732481382078155e-01	-6.749533402590971e-02	2.761048992242929e+00	8.983901573833613e-01	9.723740786818530e-01	-2.268076844121401e-01	9.050094878754886e-01	
65	2.545700073240000e-01	-5.293210718899675e-02	9.226930039535786e-01	9.741635667953884e-01	-6.989427489842270e-02	2.758760099990619e+00	8.967440753172305e-01	9.718769639249878e-01	-2.304819747383247e-01	9.074442455681964e-01	
66	2.409400045870000e-01	-5.193703489730156e-02	9.219005941261534e-01	9.747789300999857e-01	-7.313501423848245e-02	2.757285955298045e+00	8.956159599329794e-01	9.714886459986628e-01	-2.330000894353139e-01	9.091971601312875e-01	
67	2.275699973110000e-01	-5.091278159091033e-02	9.203663984427991e-01	9.757413155784060e-01	-7.694677835121581e-02	2.754371868559616e+00	8.935725421112292e-01	9.708878373038138e-01	-2.375612899302920e-01	9.121612538578502e-01	
68	2.144699990750000e-01	-4.985046141169347e-02	9.195226496582352e-01	9.760431868476145e-01	-8.184366505700287e-02	2.752569116641143e+00	8.923631426427316e-01	9.704634714266170e-01	-2.402608423153312e-01	9.138490419585720e-01	
69	2.016600072380000e-01	-4.874198892830679e-02	9.181310803433339e-01	9.768465223642099e-01	-8.769847141490714e-02	2.750164153781362e+00	8.905269211871754e-01	9.699344028895789e-01	-2.443595509214836e-01	9.167050465921665e-01	
70	1.891400069000000e-01	-4.757795599745179e-02	9.182679913844896e-01	9.772223058511135e-01	-9.452824802655060e-02	2.751639834131641e+00	8.907174333953080e-01	9.699972576114269e-01	-2.439343004569019e-01	9.174809450497958e-01	
71	1.769299954180000e-01	-4.635151762081739e-02	9.185905834364437e-01	9.774210650720970e-01	-1.023667472921440e-01	2.754095960351431e+00	8.913529954563826e-01	9.703485007671586e-01	-2.425156351420032e-01	9.179111999199644e-01	
72	1.650400012730000e-01	-4.505614575830977e-02	9.212996660017722e-01	9.778880622048397e-01	-1.109459649625887e-01	2.762838899438781e+00	8.948730132693130e-01	9.713158989331403e-01	-2.346584525238549e-01	9.160543442900150e-01	
73	1.534900069240000e-01	-4.368800416792852e-02	9.246766614408587e-01	9.771264271240664e-01	-1.207872899496797e-01	2.773076686968614e+00	8.995648176461744e-01	9.728425677408641e-01	-2.241856748969323e-01	9.123649871100205e-01	
74	1.422899961470000e-01	-4.224406461993352e-02	9.294248724421931e-01	9.761967988284090e-01	-1.309027310340121e-01	2.786901983738695e+00	9.060089634554799e-01	9.748060228631665e-01	-2.098014208583039e-01	9.071307373565385e-01	
75	1.314399987460000e-01	-4.072180505882875e-02	9.344678679515384e-01	9.730566764978984e-01	-1.425181235217368e-01	2.800744164751602e+00	9.133027023756993e-01	9.773505689155098e-01	-1.935207536256711e-01	8.996912614795741e-01	
76	1.209499984980000e-01	-3.912187004441887e-02	9.428102667200094e-01	9.707951104702758e-01	-1.535865721674977e-01	2.823940782140411e+00	9.246502496252378e-01	9.807384181782945e-01	-1.681914070865228e-01	8.896738737620230e-01	
77	1.108499988910000e-01	-3.745045581559055e-02	9.520658394425681e-01	9.649472958861296e-01	-1.663502517926012e-01	2.848004640173479e+00	9.377881196683904e-01	9.850034323439889e-01	-1.388658043116286e-01	8.758165831229481e-01	
78	1.011300012470000e-01	-3.570953382058466e-02	9.630212146851227e-01	9.611864927006126e-01	-1.784301691655141e-01	2.878499173566462e+00	9.529166486073541e-01	9.895074314836645e-01	-1.050967665014416e-01	8.624922622379906e-01	
79	9.181000292300000e-02	-3.390804876753013e-02	9.741906882938907e-01	9.558051195620673e-01	-1.918968854667026e-01	2.909439810500622e+00	9.686626157580787e-01	9.943254717970123e-01	-6.994951839714585e-02	8.481607313391497e-01	
80	8.290000259900000e-02	-3.205530774715014e-02	9.863940744340510e-01	9.516505561238269e-01	-2.036455155948721e-01	2.944512947141045e+00	9.857703113444448e-01	9.993676329716763e-01	-3.176269789186425e-02	8.341096818454307e-01	
81	7.440000027400000e-02	-3.016007752165110e-02	9.990933577827017e-01	9.404456313991403e-01	-2.165095344115166e-01	2.976324644343700e+00	1.004097957884658e+00	1.005009141601205e+00	9.147227421112224e-03	8.143161631535952e-01	
82	6.633000075800000e-02	-2.823695731140017e-02	1.012910132525426e+00	9.322482779602331e-01	-2.279140318755857e-01	3.014324011546537e+00	1.023871090598372e+00	1.010821254246532e+00	5.328368437136533e-02	7.964621889495592e-01	
83	5.869000032500000e-02	-2.629716270143250e-02	1.026445778353582e+00	9.192550887671671e-01	-2.402701640512490e-01	3.048559362142269e+00	1.043523626410208e+00	1.016637847236334e+00	9.715095180850078e-02	7.758949176117796e-01	
84	5.149000138000000e-02	-2.435496159025669e-02	1.041346534858275e+00	9.109854964319549e-01	-2.513671498391739e-01	3.090735448349318e+00	1.064770101843432e+00	1.022493537166612e+00	1.445761201862319e-01	7.585000373519079e-01	
85	4.473999887700000e-02	-2.242514383125617e-02	1.055587889926220e+00	8.946583871594374e-01	-2.609987066864086e-01	3.125581971096675e+00	1.085673501069921e+00	1.028501284858245e+00	1.912354934596441e-01	7.357538857453007e-01	
86	3.844000026600000e-02	-2.051950491613100e-02	1.071008098958339e+00	8.836575368070877e-01	-2.717711133202628e-01	3.169032808644556e+00	1.108004586188572e+00	1.034543611076532e+00	2.410816655994903e-01	7.172627287338511e-01	
