"PointID"	"x"	"y"	"Conservative_1"	"Conservative_2"	"Conservative_3"	"Conservative_4"	"Pressure"	"Temperature"	"C<sub>p</sub>"	"Mach"
0	9.997500181200000e-01	-3.633245087722757e-05	1.199854376182061e+00	7.195047122774307e-01	1.010167747293344e-01	3.446459734512257e+00	1.290591312330825e+00	1.075623290584220e+00	6.486413221670192e-01	4.934573761585826e-01	
1	9.990000128750000e-01	-1.454737849191017e-04	1.181660225832154e+00	7.458329719305959e-01	1.066586967183644e-01	3.400925452204798e+00	1.264294695358195e+00	1.069930820822753e+00	5.899435164245436e-01	5.209584903807480e-01	
2	9.977599978450000e-01	-3.275233715173844e-04	1.171276565749795e+00	7.638653979480886e-01	1.128597738704523e-01	3.375738151735338e+00	1.248487081110382e+00	1.065919969389263e+00	5.546586631928172e-01	5.396600806296477e-01	
3	9.960200190539999e-01	-5.900136575910252e-04	1.164883929685387e+00	7.746071904707125e-01	1.197786440800346e-01	3.360333969749921e+00	1.238652997525181e+00	1.063327397657308e+00	5.327075837615652e-01	5.514833832940675e-01	
4	9.937800168990000e-01	-9.474081220721375e-04	1.160357703029415e+00	7.804262392679513e-01	1.302396774567657e-01	3.349299876448749e+00	1.231817450016517e+00	1.061584239756877e+00	5.174496652154404e-01	5.593241392125704e-01	
5	9.910500049590000e-01	-1.422965258433267e-03	1.155932406248647e+00	7.851327759575927e-01	1.449334224597882e-01	3.338525858436922e+00	1.225120300568984e+00	1.059854619479762e+00	5.025006709129115e-01	5.670218163277801e-01	
6	9.878399968150000e-01	-2.047502166751019e-03	1.149072601824581e+00	7.908871624424461e-01	1.635109478677722e-01	3.321491290098852e+00	1.215072212570254e+00	1.057437285199276e+00	4.800719030586032e-01	5.776494481072552e-01	
7	9.841300249100000e-01	-2.857592683352911e-03	1.138158064440721e+00	8.005265688775840e-01	1.840499521037548e-01	3.294311194803980e+00	1.199161478031087e+00	1.053598366954719e+00	4.445568706051041e-01	5.942329636993088e-01	
8	9.799500107769999e-01	-3.865718984661815e-03	1.121952638657500e+00	8.155464581548590e-01	2.033890597388535e-01	3.253879599838470e+00	1.175613701249649e+00	1.047828277899822e+00	3.919948688608242e-01	6.185393021385520e-01	
9	9.752799868580000e-01	-5.069085653791832e-03	1.100542461125813e+00	8.360034968647829e-01	2.175872723109035e-01	3.200414058815390e+00	1.144551397959890e+00	1.039988404253897e+00	3.226593704461841e-01	6.505129675666040e-01	
10	9.701499938960000e-01	-6.420693127629881e-03	1.075167208798066e+00	8.601783844745977e-01	2.234429276054778e-01	3.136933102597793e+00	1.107850308763831e+00	1.030398155466722e+00	2.407372963478359e-01	6.882167469756341e-01	
11	9.645400047300000e-01	-7.861769959383577e-03	1.048440507939722e+00	8.847303219163458e-01	2.193654392024154e-01	3.069829979576207e+00	1.069435838325807e+00	1.020025294928124e+00	1.549907105486766e-01	7.275334752610358e-01	
12	9.584699869160000e-01	-9.316583345477298e-03	1.024743056006827e+00	9.059926706717696e-01	2.063136451034119e-01	3.010154260603764e+00	1.035553504179876e+00	1.010549423203876e+00	7.936050040150798e-02	7.623339002545583e-01	
13	9.519400000570000e-01	-1.072945848122977e-02	1.008097595064695e+00	9.215671706904019e-01	1.880935108744715e-01	2.968216389179411e+00	1.011774735534821e+00	1.003647603652789e+00	2.628289181879787e-02	7.871042438976686e-01	
14	9.449599981310000e-01	-1.207226091252937e-02	9.996528486131462e-01	9.308577699720241e-01	1.694545090831551e-01	2.946968187847972e+00	9.996828950920832e-01	1.000030056913236e+00	-7.078234551714504e-04	7.999133724095541e-01	
15	9.375399947170000e-01	-1.334936044122159e-02	9.975607282816772e-01	9.348596942092079e-01	1.540856115352490e-01	2.941693836775356e+00	9.966975098177342e-01	9.991346707629221e-01	-7.371629871129028e-03	8.030663924770072e-01	
16	9.296900033950000e-01	-1.458814838070450e-02	9.986575334435814e-01	9.356349769518029e-01	1.436359159096620e-01	2.944408056901065e+00	9.983135002223981e-01	9.996555043048673e-01	-3.764508432147177e-03	8.012331471883949e-01	
17	9.214000105860000e-01	-1.582702905902774e-02	1.000093087338769e+00	9.352867490643164e-01	1.378657108652329e-01	2.947947263057807e+00	1.000441891934495e+00	1.000348772129456e+00	9.863659252112062e-04	7.987894093348595e-01	
18	9.126999974250000e-01	-1.709332583570754e-02	1.000108496755767e+00	9.352804836109669e-01	1.354183416467175e-01	2.947891540319938e+00	1.000558451393852e+00	1.000449905824763e+00	1.246543289849007e-03	7.984325761140760e-01	
19	9.035800099370001e-01	-1.840810358843292e-02	9.981005362541487e-01	9.362302126610574e-01	1.346549902582902e-01	2.942710597835026e+00	9.978119223675117e-01	9.997108368584591e-01	-4.884101858232800e-03	8.010382519273628e-01	
20	8.940600156780000e-01	-1.977497248386042e-02	9.942916629600158e-01	9.381894838970353e-01	1.342750248334237e-01	2.932973021782087e+00	9.925119842221926e-01	9.982101039321553e-01	-1.671432093260590e-02	8.063151312999611e-01	
21	8.841500282290000e-01	-2.118926186405562e-02	9.892426792438331e-01	9.408558993732491e-01	1.335130322492916e-01	2.920087568128992e+00	9.854639408815429e-01	9.961801705066158e-01	-3.244656053227037e-02	8.134233132379307e-01	
22	8.738499879840000e-01	-2.264270816957354e-02	9.835423019717799e-01	9.438524927624696e-01	1.320840474748799e-01	2.905533418423869e+00	9.775128777474276e-01	9.938696849009295e-01	-5.019446931377775e-02	8.214738894441442e-01	
23	8.631799817090000e-01	-2.412316294500897e-02	9.776645186907602e-01	9.468881554021451e-01	1.300171942693279e-01	2.890510669252403e+00	9.693300113108730e-01	9.914750845299694e-01	-6.845979618108697e-02	8.297741355680457e-01	
24	8.521599769590000e-01	-2.561994655475267e-02	9.718879849478678e-01	9.497765715537753e-01	1.274826882331210e-01	2.875723448445060e+00	9.613113518904536e-01	9.891174361436506e-01	-8.635858953023755e-02	8.379046580095429e-01	
25	8.407700061800000e-01	-2.712991007678178e-02	9.663227928056609e-01	9.524524823292801e-01	1.246814465149106e-01	2.861455000716819e+00	9.536083005934353e-01	9.868423964467301e-01	-1.035529004610820e-01	8.457125080254158e-01	
26	8.290500044819999e-01	-2.864381582333738e-02	9.609589681497620e-01	9.549117435083961e-01	1.217476059051667e-01	2.847680182222423e+00	9.462066232396215e-01	9.846483092420224e-01	-1.200745016972735e-01	8.532085709853058e-01	
27	8.170099854470000e-01	-3.015783963284593e-02	9.557485575852923e-01	9.571970914427460e-01	1.187703103659723e-01	2.834283899443732e+00	9.390320923335078e-01	9.825095574363004e-01	-1.360890796127058e-01	8.604845409857189e-01	
28	8.046399950980000e-01	-3.167117865046339e-02	9.506258543868240e-01	9.593192171692353e-01	1.157748670093061e-01	2.821092759745920e+00	9.319986889420496e-01	9.804053662554875e-01	-1.517886407543535e-01	8.676139859098909e-01	
29	7.919700145720000e-01	-3.317818651459965e-02	9.455590194769147e-01	9.613108143954672e-01	1.127482450757940e-01	2.808029494774285e+00	9.250579800423522e-01	9.783186041143116e-01	-1.672812945483210e-01	8.746569060197593e-01	
30	7.790099978450000e-01	-3.467560540073597e-02	9.405317930283693e-01	9.632070441936814e-01	1.096786307428394e-01	2.795059764693776e+00	9.181801113365625e-01	9.762350599336600e-01	-1.826336800523158e-01	8.816625164650190e-01	
31	7.657799720760000e-01	-3.615881540382506e-02	9.354998129105593e-01	9.649999889362706e-01	1.065449447257079e-01	2.782061782632800e+00	9.113117269711605e-01	9.741442108212253e-01	-1.979648951536597e-01	8.886669404585578e-01	
32	7.522799968720000e-01	-3.762525305487521e-02	9.304289887366168e-01	9.667043056343760e-01	1.033356046405896e-01	2.768948505339303e+00	9.044052807012825e-01	9.720304199994129e-01	-2.133810698632088e-01	8.957228119675402e-01	
33	7.385200262070000e-01	-3.907106140787424e-02	9.253361270375459e-01	9.683171835222047e-01	1.000428971354203e-01	2.755763731310529e+00	8.974833265064411e-01	9.698998021180962e-01	-2.288318604766939e-01	9.028098050148933e-01	
34	7.245299816130000e-01	-4.049035788186553e-02	9.202735635671763e-01	9.698258998200374e-01	9.665265884376489e-02	2.742642453445692e+00	8.906174942454975e-01	9.677747242822827e-01	-2.441573789163002e-01	9.098541058384425e-01	
35	7.103199958800001e-01	-4.187950554563320e-02	9.152906560737557e-01	9.712184323081318e-01	9.317989915011096e-02	2.729712323825372e+00	8.838749972657511e-01	9.656768496438438e-01	-2.592075953889483e-01	9.167852051941416e-01	
36	6.958900094030001e-01	-4.323593527170021e-02	9.104064180001855e-01	9.725090696990919e-01	8.962116516054892e-02	2.717027371987829e+00	8.772768714790082e-01	9.636101571054937e-01	-2.739355547343566e-01	9.235916043672512e-01	
37	6.812700033190000e-01	-4.455444708111791e-02	9.056259571903534e-01	9.736792755850118e-01	8.599523002570476e-02	2.704595241389174e+00	8.708356393701135e-01	9.615842307257022e-01	-2.883133049774251e-01	9.302434987283406e-01	
38	6.664699912070000e-01	-4.583204098645866e-02	9.009610447877610e-01	9.747388453384535e-01	8.230861929258376e-02	2.692449443918976e+00	8.645642617231715e-01	9.596022677393746e-01	-3.023119157964922e-01	9.367322295088960e-01	
39	6.514999866490000e-01	-4.706594619933189e-02	8.964289137413848e-01	9.757034704276429e-01	7.857365900656435e-02	2.680639924341366e+00	8.584808298662467e-01	9.576674923204388e-01	-3.158910047628421e-01	9.430490526239359e-01	
40	6.363800168040000e-01	-4.825286316002313e-02	8.920296423812168e-01	9.765539212161147e-01	7.480376069880645e-02	2.669160266569470e+00	8.525920690895312e-01	9.557889430821946e-01	-3.290355600680107e-01	9.491663100354552e-01	
41	6.211299896240000e-01	-4.938989691161399e-02	8.877744297997393e-01	9.773254717361335e-01	7.100626840578900e-02	2.658050317168679e+00	8.469023471193496e-01	9.539611850618301e-01	-3.417358323228803e-01	9.551034734238431e-01	
42	6.057599782940000e-01	-5.047521508147382e-02	8.836461578958803e-01	9.779915652991196e-01	6.719981333875123e-02	2.647255899029537e+00	8.413982584233350e-01	9.521891210695184e-01	-3.540217445907700e-01	9.608462623544614e-01	
43	5.902799963950000e-01	-5.150720712434430e-02	8.796624783750411e-01	9.785896465660053e-01	6.338627061376147e-02	2.636834597100191e+00	8.360919075745933e-01	9.504689902416510e-01	-3.658662777352829e-01	9.664084124271499e-01	
44	5.747100114820000e-01	-5.248385443650355e-02	8.758386052274538e-01	9.790870499327453e-01	5.957319306828836e-02	2.626815413349829e+00	8.310143574941272e-01	9.488213382399540e-01	-3.772000948791803e-01	9.717250970381819e-01	
45	5.590599775310000e-01	-5.340403529287054e-02	8.722258477390588e-01	9.795253381310767e-01	5.575241562017571e-02	2.617345843832213e+00	8.262206822642564e-01	9.472554435367233e-01	-3.879002628029992e-01	9.767681506289981e-01	
46	5.433599948880000e-01	-5.426570182198145e-02	8.688118556838782e-01	9.798818817420976e-01	5.192795833529856e-02	2.608384997052084e+00	8.217030144968693e-01	9.457778564152681e-01	-3.979843426409167e-01	9.815182437409389e-01	
47	5.276100039480000e-01	-5.506870607243898e-02	8.655311924397983e-01	9.802090883568559e-01	4.811237013921053e-02	2.599776425734767e+00	8.173594559099426e-01	9.443443090779123e-01	-4.076797859153066e-01	9.861189970427968e-01	
48	5.118399858470000e-01	-5.581145828482903e-02	8.622361774871461e-01	9.804747633317241e-01	4.432915801246381e-02	2.591120275014451e+00	8.130068160930449e-01	9.429050152620917e-01	-4.173954997923104e-01	9.907306749848583e-01	
49	4.960500001910000e-01	-5.649394877362895e-02	8.589185010381956e-01	9.807182911722172e-01	4.058285343868692e-02	2.582407382539967e+00	8.086214506572815e-01	9.414414169445430e-01	-4.271842619257109e-01	9.954126769565016e-01	
50	4.802699983120000e-01	-5.711489345840396e-02	8.557822339448090e-01	9.808807273577773e-01	3.683756843516429e-02	2.574155108674526e+00	8.044916742956650e-01	9.400658746878687e-01	-4.364025127328905e-01	9.998062039594796e-01	
51	4.645099937920000e-01	-5.767394889987796e-02	8.531851606778583e-01	9.809894432154912e-01	3.303691176466457e-02	2.567312148566017e+00	8.010813333918619e-01	9.389302232535320e-01	-4.440148808217367e-01	1.003428659895271e+00	
52	4.487800002100000e-01	-5.817070177746148e-02	8.512504103939018e-01	9.810288696267221e-01	2.915816400608068e-02	2.562195266164397e+00	7.985597799644992e-01	9.381020792635851e-01	-4.496433482935285e-01	1.006067522396044e+00	
53	4.331099987030000e-01	-5.860412555023093e-02	8.496991225918431e-01	9.810545193816871e-01	2.518643460106885e-02	2.558087916394010e+00	7.965426113036005e-01	9.374407835963172e-01	-4.541459569116061e-01	1.008173102446273e+00	
54	4.174999892710000e-01	-5.897403464300687e-02	8.478672205486200e-01	9.810854145043195e-01	2.115018219720900e-02	2.553250477550696e+00	7.941476611378315e-01	9.366415423207085e-01	-4.594918278173403e-01	1.010716004608397e+00	
55	4.019699990750000e-01	-5.927958282000080e-02	8.449892123250314e-01	9.811569669042792e-01	1.709205248554744e-02	2.545684574437317e+00	7.903511254570013e-01	9.353387166710798e-01	-4.679662378191936e-01	1.014856741252463e+00	
56	3.865399956700000e-01	-5.951992251929905e-02	8.405172535750965e-01	9.812015810704282e-01	1.306032563595577e-02	2.533933985044423e+00	7.844463248974589e-01	9.332899730027638e-01	-4.811465962110292e-01	1.021357441472945e+00	
57	3.712300062180000e-01	-5.969419665301574e-02	8.345308494644786e-01	9.811385417589795e-01	9.050875262245886e-03	2.518189892782305e+00	7.765559646559080e-01	9.305299680104419e-01	-4.987590074644910e-01	1.030094856953464e+00	
58	3.560400009160000e-01	-5.980163949339636e-02	8.278646682568040e-01	9.808271967901637e-01	4.962363206987288e-03	2.500602875945289e+00	7.678247538582385e-01	9.274761724944867e-01	-5.182483172807177e-01	1.039736550922069e+00	
59	3.409900069240000e-01	-5.984111839161851e-02	8.218096177488883e-01	9.803272129358030e-01	6.470834154557058e-04	2.484576047035834e+00	7.599461121857677e-01	9.247228260328983e-01	-5.358345710139114e-01	1.048407518159655e+00	
60	3.261100053790000e-01	-5.981154352286060e-02	8.173293540626647e-01	9.798055616228409e-01	-3.939869829317276e-03	2.472681310593316e+00	7.541526705970966e-01	9.227035182921813e-01	-5.487663602743380e-01	1.054754066592927e+00	
61	3.113999962810000e-01	-5.971176206669798e-02	8.146699654731047e-01	9.793709337354528e-01	-8.777346192540968e-03	2.465591025493632e+00	7.507436319421570e-01	9.215310048973961e-01	-5.563758215576853e-01	1.058434414971798e+00	
62	2.968699932100000e-01	-5.954041503043377e-02	8.135721515373204e-01	9.791033335413204e-01	-1.385166589823091e-02	2.462650287227899e+00	7.493501770354759e-01	9.210617344995268e-01	-5.594862119743842e-01	1.059906422788851e+00	
63	2.825500071050000e-01	-5.929639044923107e-02	8.135911739562439e-01	9.789389765594154e-01	-1.914945082407908e-02	2.462674185463526e+00	7.494013798423796e-01	9.211031336515995e-01	-5.593719199946883e-01	1.059776583942009e+00	
64	2.684499919410000e-01	-5.897838181677080e-02	8.144014132143019e-01	9.788785795319608e-01	-2.470872621345331e-02	2.464813625800029e+00	7.504607816541435e-01	9.214875729306565e-01	-5.570071838077153e-01	1.058570675501061e+00	
65	2.545700073240000e-01	-5.858468205563085e-02	8.157924232359546e-01	9.788298628495249e-01	-3.055804918168313e-02	2.468489424597594e+00	7.522767205662734e-01	9.221423233894021e-01	-5.529537487359970e-01	1.056516007388363e+00	
66	2.409400045870000e-01	-5.811438862812131e-02	8.177088013819023e-01	9.788154185786496e-01	-3.675470458637980e-02	2.473567983667347e+00	7.547640639188351e-01	9.230230402843990e-01	-5.474016430383145e-01	1.053750530712038e+00	
67	2.275699973110000e-01	-5.756617178531671e-02	8.200631152187474e-01	9.787629954717754e-01	-4.331591998855711e-02	2.479799618031804e+00	7.578273115489752e-01	9.241085198019533e-01	-5.405640367210375e-01	1.050339361123803e+00	
68	2.144699990750000e-01	-5.693868890465851e-02	8.227679195262436e-01	9.786863774712372e-01	-5.027559960159198e-02	2.486964574281198e+00	7.613409812754977e-01	9.253411116392142e-01	-5.327210239386213e-01	1.046462157449127e+00	
69	2.016600072380000e-01	-5.623119377517311e-02	8.257127067186569e-01	9.785179131383560e-01	-5.765451056033296e-02	2.494754984576148e+00	7.651766545925893e-01	9.266863018656516e-01	-5.241592531415417e-01	1.042226147719523e+00	
70	1.891400069000000e-01	-5.544194371061736e-02	8.289245630746191e-01	9.782720957966905e-01	-6.550141177260388e-02	2.503252014524441e+00	7.693601030773086e-01	9.281424840683020e-01	-5.148211984881504e-01	1.037635061468489e+00	
71	1.769299954180000e-01	-5.457044048101911e-02	8.325762743912237e-01	9.778962008806221e-01	-7.388241956761771e-02	2.512897526119050e+00	7.741316268433635e-01	9.298026507053729e-01	-5.041704757960638e-01	1.032393612392388e+00	
72	1.650400012730000e-01	-5.361576437211139e-02	8.369191266519473e-01	9.773937020089531e-01	-8.286859795939001e-02	2.524360860795566e+00	7.798139669104073e-01	9.317674098691159e-01	-4.914866810035552e-01	1.026180259006583e+00	
73	1.534900069240000e-01	-5.257804958920374e-02	8.420153188079044e-01	9.766846929427282e-01	-9.249264511837600e-02	2.537789459675369e+00	7.865052450043573e-01	9.340747459533917e-01	-4.765507924009883e-01	1.018868877473040e+00	
74	1.422899961470000e-01	-5.145692419432941e-02	8.477805976866599e-01	9.757564076378821e-01	-1.027973663806504e-01	2.552970869002226e+00	7.940852814991145e-01	9.366636647098746e-01	-4.596310680823337e-01	1.010645647448673e+00	
75	1.314399987460000e-01	-5.025103834276202e-02	8.540668115621071e-01	9.744677616805157e-01	-1.138367165319356e-01	2.569483774640684e+00	8.023904843424058e-01	9.394938118187922e-01	-4.410926688785585e-01	1.001631490740995e+00	
76	1.209499984980000e-01	-4.896004427180417e-02	8.609441262047136e-01	9.728385511478564e-01	-1.257236600741176e-01	2.587537889519788e+00	8.114881565487094e-01	9.425561216451758e-01	-4.207853648466308e-01	9.918474598312427e-01	
77	1.108499988910000e-01	-4.758662155068845e-02	8.685962841025588e-01	9.707747814348477e-01	-1.385270638748051e-01	2.607607238117142e+00	8.216296929812777e-01	9.459281694143934e-01	-3.981480067382193e-01	9.810353978537212e-01	
78	1.011300012470000e-01	-4.612850073067271e-02	8.770808160101666e-01	9.680429503563023e-01	-1.523236188045430e-01	2.629794746488969e+00	8.329393002610149e-01	9.496722366475293e-01	-3.729033476316631e-01	9.689807364034798e-01	
79	9.181000292300000e-02	-4.458768905139234e-02	8.864373976055385e-01	9.644891225412394e-01	-1.672400817831137e-01	2.654190852742947e+00	8.454831806904710e-01	9.537990871936433e-01	-3.449036145301986e-01	9.556293357857035e-01	
80	8.290000259900000e-02	-4.296520364315631e-02	8.967786000736374e-01	9.600216029150862e-01	-1.833966496600086e-01	2.681105286207830e+00	8.593960384300844e-01	9.583146145096647e-01	-3.138481285042760e-01	9.409381570574066e-01	
81	7.440000027400000e-02	-4.126030190946459e-02	9.081644146369212e-01	9.543454557026619e-01	-2.009076497137682e-01	2.710654893000894e+00	8.747978740003808e-01	9.632593613020172e-01	-2.794690312491501e-01	9.247448204497095e-01	
82	6.633000075800000e-02	-3.947642350723025e-02	9.207486650319323e-01	9.471954195870047e-01	-2.199310857085018e-01	2.743230442702848e+00	8.919052172608430e-01	9.686739184464755e-01	-2.412829971856182e-01	9.068763271967850e-01	
83	5.869000032500000e-02	-3.761317497944555e-02	9.346507539223208e-01	9.381493855773055e-01	-2.406030201389290e-01	2.779100789521138e+00	9.109206183123337e-01	9.746106922715230e-01	-1.988379055528265e-01	8.871064053698994e-01	
84	5.149000138000000e-02	-3.567248652305630e-02	9.500636316337892e-01	9.266865144502231e-01	-2.630456462827699e-01	2.818724770807561e+00	9.321470118695564e-01	9.811416633921436e-01	-1.514575627911688e-01	8.651224655390487e-01	
85	4.473999887700000e-02	-3.365680057231314e-02	9.672680966118389e-01	9.120719960321156e-01	-2.873769222652804e-01	2.862768952174427e+00	9.560264306488836e-01	9.883779212791856e-01	-9.815528873017054e-02	8.404466540841375e-01	
86	3.844000026600000e-02	-3.156573122092295e-02	9.864946634545315e-01	8.933640051134994e-01	-3.136653486804908e-01	2.911752815367398e+00	9.829494695376972e-01	9.964062715712831e-01	-3.805921978192581e-02	8.126332292427469e-01	
