"Global_Index", "x_coord", "y_coord", "Pressure", "Pressure_Coefficient", "Mach_Number"
149, 4.960500001910000e-01, 4.664579690424467e-02, 7.821296791726887e-01, -4.863176804181055e-01, 1.022409671676132e+00
150, 5.118399858470000e-01, 4.624635816697465e-02, 7.884329896945954e-01, -4.722477908602781e-01, 1.015631770691391e+00
151, 5.276100039480000e-01, 4.576753811313933e-02, 7.947185632766856e-01, -4.582174926859698e-01, 1.008927033583531e+00
152, 5.433599948880000e-01, 4.520764634690597e-02, 8.013138180887042e-01, -4.434959417662854e-01, 1.001926050228119e+00
153, 5.590599775310000e-01, 4.456631724869638e-02, 8.086298323065223e-01, -4.271655528872270e-01, 9.941867961034441e-01
154, 5.747100114820000e-01, 4.384242789265066e-02, 8.167425647036924e-01, -4.090567752149722e-01, 9.856089743250969e-01
155, 5.902799963950000e-01, 4.303661889513945e-02, 8.253686292563909e-01, -3.898021668384132e-01, 9.765002144886903e-01
156, 6.057599782940000e-01, 4.214915982467730e-02, 8.342275821645472e-01, -3.700277183827072e-01, 9.671997552408031e-01
157, 6.211299896240000e-01, 4.118142821569898e-02, 8.433478539328360e-01, -3.496699688999197e-01, 9.576426530598577e-01
158, 6.363800168040000e-01, 4.013481700621237e-02, 8.529446799901100e-01, -3.282484821649330e-01, 9.476354579426388e-01
159, 6.514999866490000e-01, 3.901127280513686e-02, 8.630898551470507e-01, -3.056030019039047e-01, 9.370850046962256e-01
160, 6.664699912070000e-01, 3.781414920215624e-02, 8.737107690306055e-01, -2.818956048423984e-01, 9.260849408341058e-01
161, 6.812700033190000e-01, 3.654765949715622e-02, 8.846980515589690e-01, -2.573704206273014e-01, 9.147388776113737e-01
162, 6.958900094030001e-01, 3.521594956149714e-02, 8.959864432994517e-01, -2.321731176351526e-01, 9.031235885598298e-01
163, 7.103199958800001e-01, 3.382382908264254e-02, 9.075626396597468e-01, -2.063333936166366e-01, 8.912501328805112e-01
164, 7.245299816130000e-01, 3.237885957519046e-02, 9.193882311291784e-01, -1.799369840866553e-01, 8.791554339315792e-01
165, 7.385200262070000e-01, 3.088638323463642e-02, 9.314454351686823e-01, -1.530235822127628e-01, 8.668582453679360e-01
166, 7.522799968720000e-01, 2.935334263152197e-02, 9.436703781235251e-01, -1.257357631171316e-01, 8.544123853680583e-01
167, 7.657799720760000e-01, 2.778963934970317e-02, 9.560282289242730e-01, -9.815127472260497e-02, 8.418783762370601e-01
168, 7.790099978450000e-01, 2.620364887437361e-02, 9.684435269091578e-01, -7.043855600634419e-02, 8.292604344653871e-01
169, 7.919700145720000e-01, 2.460301732658443e-02, 9.808886120634185e-01, -4.265934807272660e-02, 8.166592410881814e-01
170, 8.046399950980000e-01, 2.299826863533824e-02, 9.932580284339101e-01, -1.504904367430784e-02, 8.041483243681652e-01
171, 8.170099854470000e-01, 2.139904283901585e-02, 1.005446991541760e+00, 1.215846326285785e-02, 7.918030907841108e-01
172, 8.290500044819999e-01, 1.981769304432201e-02, 1.017347420696412e+00, 3.872192119734806e-02, 7.797702708539505e-01
173, 8.407700061800000e-01, 1.826101275112791e-02, 1.028842167035424e+00, 6.437983713264230e-02, 7.681518513609934e-01
174, 8.521599769590000e-01, 1.673744626037158e-02, 1.039859895492010e+00, 8.897298100895182e-02, 7.570175973643950e-01
175, 8.631799817090000e-01, 1.525783364423163e-02, 1.050367135735258e+00, 1.124266422661998e-01, 7.463959617564445e-01
176, 8.738499879840000e-01, 1.382265772468261e-02, 1.060433882082943e+00, 1.348970582208556e-01, 7.361933349508789e-01
177, 8.841500282290000e-01, 1.243513948369669e-02, 1.070309764218242e+00, 1.569414379871468e-01, 7.261628547851036e-01
178, 8.940600156780000e-01, 1.109648165845858e-02, 1.080384330485423e+00, 1.794293091192469e-01, 7.158564926950879e-01
179, 9.035800099370001e-01, 9.804994199667093e-03, 1.091208318685515e+00, 2.035899970658808e-01, 7.047306300316812e-01
180, 9.126999974250000e-01, 8.563381834490916e-03, 1.103231259434460e+00, 2.304269183804906e-01, 6.922737844298569e-01
181, 9.214000105860000e-01, 7.382589819100185e-03, 1.116580939629756e+00, 2.602253116735628e-01, 6.783904173189218e-01
182, 9.296900033950000e-01, 6.279180929028940e-03, 1.130702531703400e+00, 2.917467225522323e-01, 6.636603232451941e-01
31, 7.657799720760000e-01, -3.607292142141864e-02, 9.121272553705027e-01, -1.961445192622709e-01, 8.878444082368026e-01
32, 7.522799968720000e-01, -3.753846325060161e-02, 9.052359803652245e-01, -2.115268295419097e-01, 8.948831624999225e-01
33, 7.385200262070000e-01, -3.898361596080321e-02, 8.983301674713315e-01, -2.269415904657778e-01, 9.019519536466499e-01
34, 7.245299816130000e-01, -4.040250788828437e-02, 8.914800312512815e-01, -2.422320730998181e-01, 9.089783913097133e-01
35, 7.103199958800001e-01, -4.179151083731203e-02, 8.847515300720008e-01, -2.572510489464268e-01, 9.158931692434333e-01
36, 6.958900094030001e-01, -4.314806263643732e-02, 8.781652313458450e-01, -2.719526086030246e-01, 9.226855105511622e-01
37, 6.812700033190000e-01, -4.446696694134525e-02, 8.717328892161331e-01, -2.863105151425600e-01, 9.293261382474077e-01
38, 6.664699912070000e-01, -4.574522322421216e-02, 8.654669128452881e-01, -3.002970695417677e-01, 9.358072961734850e-01
39, 6.514999866490000e-01, -4.698005573142617e-02, 8.593844958087787e-01, -3.138738932839760e-01, 9.421209639580534e-01
40, 6.363800168040000e-01, -4.816815415777231e-02, 8.534919512475710e-01, -3.270268945366718e-01, 9.482401890145350e-01
41, 6.211299896240000e-01, -4.930660696337540e-02, 8.477928784776494e-01, -3.397480391123898e-01, 9.541850845670465e-01
42, 6.057599782940000e-01, -5.039356040205462e-02, 8.422732377315738e-01, -3.520686657777370e-01, 9.599423339992765e-01
43, 5.902799963950000e-01, -5.142737721704754e-02, 8.369438610792964e-01, -3.639645958051420e-01, 9.655268422810324e-01
44, 5.747100114820000e-01, -5.240600555372827e-02, 8.318353868799332e-01, -3.753674400001492e-01, 9.708745574212329e-01
45, 5.590599775310000e-01, -5.332828658826437e-02, 8.270035053988368e-01, -3.861528897347393e-01, 9.759564145976990e-01
46, 5.433599948880000e-01, -5.419212807860783e-02, 8.224427101473829e-01, -3.963332362781632e-01, 9.807508012367423e-01
47, 5.276100039480000e-01, -5.499733796917668e-02, 8.180531770191430e-01, -4.061313012965557e-01, 9.853988029859699e-01
48, 5.118399858470000e-01, -5.574227520097311e-02, 8.136522406791854e-01, -4.159548199125326e-01, 9.900602776280779e-01
49, 4.960500001910000e-01, -5.642688075933058e-02, 8.092146777105116e-01, -4.258600943961795e-01, 9.947961530799677e-01
50, 4.802699983120000e-01, -5.704981597198246e-02, 8.050266641301043e-01, -4.352083389953030e-01, 9.992503213688554e-01
51, 4.645099937920000e-01, -5.761068535574273e-02, 8.015471946144708e-01, -4.429750120212706e-01, 1.002945687080202e+00
52, 4.487800002100000e-01, -5.810902416452711e-02, 7.989333850846548e-01, -4.488094082931812e-01, 1.005683466484177e+00
53, 4.331099987030000e-01, -5.854375443949570e-02, 7.967832897579451e-01, -4.536087282188725e-01, 1.007933827183719e+00
54, 4.174999892710000e-01, -5.891464481682684e-02, 7.942028264680454e-01, -4.593686909195415e-01, 1.010680691158408e+00
55, 4.019699990750000e-01, -5.922080522849484e-02, 7.901868180613292e-01, -4.683329953988188e-01, 1.015063320402605e+00
56, 3.865399956700000e-01, -5.946134945858850e-02, 7.840923698454633e-01, -4.819366744520909e-01, 1.021771737248551e+00
57, 3.712300062180000e-01, -5.963538789646268e-02, 7.761315570694212e-01, -4.997063458271849e-01, 1.030582935094775e+00
58, 3.560400009160000e-01, -5.974212802442384e-02, 7.675062569705297e-01, -5.189592478336392e-01, 1.040100150247337e+00
59, 3.409900069240000e-01, -5.978041733925570e-02, 7.598619560142269e-01, -5.360224196111006e-01, 1.048507178393511e+00
60, 3.261100053790000e-01, -5.974915559201813e-02, 7.543321475308232e-01, -5.483657421186982e-01, 1.054559248306377e+00
61, 3.113999962810000e-01, -5.964718460591547e-02, 7.511487185942540e-01, -5.554716102806830e-01, 1.057989469295521e+00
62, 2.968699932100000e-01, -5.947314818737357e-02, 7.499269381799529e-01, -5.581987987054622e-01, 1.059272560208411e+00
63, 2.825500071050000e-01, -5.922594970430271e-02, 7.501114649969551e-01, -5.577869084889394e-01, 1.058997165103808e+00
64, 2.684499919410000e-01, -5.890430321525786e-02, 7.512864707334703e-01, -5.551641278270751e-01, 1.057664860220989e+00
65, 2.545700073240000e-01, -5.850652697618671e-02, 7.532146784279314e-01, -5.508600927947959e-01, 1.055487623251488e+00
66, 2.409400045870000e-01, -5.803176054024958e-02, 7.558188751324472e-01, -5.450471537222161e-01, 1.052594482715252e+00
67, 2.275699973110000e-01, -5.747871905747863e-02, 7.590082818573457e-01, -5.379279422827105e-01, 1.049045945971155e+00
68, 2.144699990750000e-01, -5.684611217666073e-02, 7.626591888767063e-01, -5.297785962573521e-01, 1.045019648705726e+00
69, 2.016600072380000e-01, -5.613325737128707e-02, 7.666402476687243e-01, -5.208923043108833e-01, 1.040626851530854e+00
70, 1.891400069000000e-01, -5.533847425701917e-02, 7.709671410379368e-01, -5.112340601831767e-01, 1.035882489666250e+00
71, 1.769299954180000e-01, -5.446134181892728e-02, 7.758676496466143e-01, -5.002954248959504e-01, 1.030505545940627e+00
72, 1.650400012730000e-01, -5.350101930761507e-02, 7.816592885959764e-01, -4.873676593839812e-01, 1.024180110859660e+00
73, 1.534900069240000e-01, -5.245773003398724e-02, 7.884478003248500e-01, -4.722147314177457e-01, 1.016771608383520e+00
74, 1.422899961470000e-01, -5.133119104411221e-02, 7.961232679256216e-01, -4.550819912374518e-01, 1.008454369809433e+00
75, 1.314399987460000e-01, -5.012014056310523e-02, 8.045240762699833e-01, -4.363301868973586e-01, 9.993472500510124e-01
76, 1.209499984980000e-01, -4.882432726919031e-02, 8.137106318910736e-01, -4.158244823859964e-01, 9.894786885909588e-01
77, 1.108499988910000e-01, -4.744653842208584e-02, 8.239274395639663e-01, -3.930191081161467e-01, 9.785975511211622e-01
78, 1.011300012470000e-01, -4.598459607339117e-02, 8.352974288168035e-01, -3.676396678196351e-01, 9.664925685731637e-01
79, 9.181000292300000e-02, -4.444061272247721e-02, 8.478867689330332e-01, -3.395384622030510e-01, 9.531074788665758e-01
80, 8.290000259900000e-02, -4.281570570972058e-02, 8.618291493389005e-01, -3.084170773685256e-01, 9.383997772996577e-01
81, 7.440000027400000e-02, -4.110922940331102e-02, 8.772426144636507e-01, -2.740120212864940e-01, 9.222094155693376e-01
82, 6.633000075800000e-02, -3.932472200895402e-02, 8.943406528307146e-01, -2.358467570742977e-01, 9.043650814688140e-01
83, 5.869000032500000e-02, -3.746188150903170e-02, 9.133229517684153e-01, -1.934755540883588e-01, 8.846436419530326e-01
84, 5.149000138000000e-02, -3.552272577419709e-02, 9.344881096408248e-01, -1.462318981231588e-01, 8.627360186654083e-01
113, 4.473999887700000e-02, 2.392484920436498e-02, 6.844750799463089e-01, -7.042966965484178e-01, 1.128473809628097e+00
114, 5.149000138000000e-02, 2.526082705863544e-02, 6.832034725713544e-01, -7.071351058675126e-01, 1.130262614818440e+00
115, 5.869000032500000e-02, 2.655928893091224e-02, 6.830671529981902e-01, -7.074393906290397e-01, 1.130704798422998e+00
116, 6.633000075800000e-02, 2.782096520270262e-02, 6.839313257215197e-01, -7.055104336573221e-01, 1.129877755476256e+00
117, 7.440000027400000e-02, 2.904652320368611e-02, 6.854904548430313e-01, -7.020302347253766e-01, 1.128162636462186e+00
118, 8.290000259900000e-02, 3.023787923613756e-02, 6.873056655107558e-01, -6.979784251992058e-01, 1.126172190922137e+00
119, 9.181000292300000e-02, 3.139393602742588e-02, 6.889677495953284e-01, -6.942684160818564e-01, 1.124371358452753e+00
120, 1.011300012470000e-01, 3.251620437289086e-02, 6.904873084599547e-01, -6.908765436161727e-01, 1.122774521340235e+00
121, 1.108499988910000e-01, 3.360465633752098e-02, 6.922731806973684e-01, -6.868902216576598e-01, 1.120909055712228e+00
122, 1.209499984980000e-01, 3.465816396538080e-02, 6.946784076024839e-01, -6.815214116015985e-01, 1.118298103538839e+00
123, 1.314399987460000e-01, 3.567858717193745e-02, 6.975398815507159e-01, -6.751341929671520e-01, 1.115064448370688e+00
124, 1.422899961470000e-01, 3.666364144001038e-02, 7.003235057874755e-01, -6.689207460100994e-01, 1.111908671878127e+00
125, 1.534900069240000e-01, 3.761306655930368e-02, 7.027285604337978e-01, -6.635523204602727e-01, 1.109203968781427e+00
126, 1.650400012730000e-01, 3.852722808940855e-02, 7.048620199657240e-01, -6.587901340050805e-01, 1.106848314247001e+00
127, 1.769299954180000e-01, 3.940544361805601e-02, 7.069233168299128e-01, -6.541890249332303e-01, 1.104574484616238e+00
128, 1.891400069000000e-01, 4.024624876104688e-02, 7.090387860609356e-01, -6.494669953996973e-01, 1.102252361033871e+00
129, 2.016600072380000e-01, 4.104885750470428e-02, 7.113072587026367e-01, -6.444034403959004e-01, 1.099745315317219e+00
130, 2.144699990750000e-01, 4.181177305402862e-02, 7.137934963310625e-01, -6.388538028324499e-01, 1.096998781512092e+00
131, 2.275699973110000e-01, 4.253458952589621e-02, 7.164843004874929e-01, -6.328475435547034e-01, 1.094010559592870e+00
132, 2.409400045870000e-01, 4.321560137919158e-02, 7.192814832645106e-01, -6.266038319988604e-01, 1.090910090256474e+00
133, 2.545700073240000e-01, 4.385356297931121e-02, 7.220626638634156e-01, -6.203958395905903e-01, 1.087821745846289e+00
134, 2.684499919410000e-01, 4.444706894223362e-02, 7.247662220245024e-01, -6.143611115524501e-01, 1.084833841761872e+00
135, 2.825500071050000e-01, 4.499381748909007e-02, 7.273650602118988e-01, -6.085601334555830e-01, 1.081962939290265e+00
136, 2.968699932100000e-01, 4.549263765181537e-02, 7.298426151769611e-01, -6.030298768371404e-01, 1.079238437320254e+00
137, 3.113999962810000e-01, 4.594174708238934e-02, 7.321507865567124e-01, -5.978777085787670e-01, 1.076708373162362e+00
138, 3.261100053790000e-01, 4.633869352993322e-02, 7.342988013366603e-01, -5.930830327306691e-01, 1.074371171414272e+00
139, 3.409900069240000e-01, 4.668159675439049e-02, 7.364399329159941e-01, -5.883037211696561e-01, 1.072052528323412e+00
140, 3.560400009160000e-01, 4.696858962272772e-02, 7.388517595140746e-01, -5.829201796560836e-01, 1.069459694080559e+00
141, 3.712300062180000e-01, 4.719710222871910e-02, 7.417600672879924e-01, -5.764284212321599e-01, 1.066303893169308e+00
142, 3.865399956700000e-01, 4.736483781855988e-02, 7.452255125411964e-01, -5.686930523634010e-01, 1.062527133739935e+00
143, 4.019699990750000e-01, 4.746963783051232e-02, 7.491778410035512e-01, -5.598708906170732e-01, 1.058208585355234e+00
144, 4.174999892710000e-01, 4.750906039694790e-02, 7.535716551302504e-01, -5.500632697985482e-01, 1.053409199309299e+00
145, 4.331099987030000e-01, 4.748075030826494e-02, 7.584319570197037e-01, -5.392143816524472e-01, 1.048112375411911e+00
146, 4.487800002100000e-01, 4.738247159414606e-02, 7.637804412309206e-01, -5.272758008238380e-01, 1.042286471803995e+00
147, 4.645099937920000e-01, 4.721188202965385e-02, 7.696014264054635e-01, -5.142825303449476e-01, 1.035977272596685e+00
148, 4.802699983120000e-01, 4.696699570534818e-02, 7.757797157598663e-01, -5.004917058931557e-01, 1.029267152570701e+00
85, 4.473999887700000e-02, -3.350977622073293e-02, 9.582728218811275e-01, -9.314102258676897e-02, 8.381682480435422e-01
86, 3.844000026600000e-02, -3.142272152141341e-02, 9.850634880364714e-01, -3.334042849001927e-02, 8.104979396529345e-01
87, 3.260000050100000e-02, -2.926440555165820e-02, 1.015397471746118e+00, 3.436935657615637e-02, 7.792242027837711e-01
88, 2.723000012300000e-02, -2.703851702174330e-02, 1.050039077391008e+00, 1.116943691763576e-01, 7.435049132674180e-01
89, 2.232000045500000e-02, -2.474002092757837e-02, 1.089583381854757e+00, 1.999629059257966e-01, 7.024658056457981e-01
90, 1.789999939500000e-02, -2.238291710505809e-02, 1.134861962733454e+00, 3.010311668157445e-01, 6.550648464594432e-01
91, 1.394999958600000e-02, -1.995638325189459e-02, 1.186674269609014e+00, 4.166836375201196e-01, 5.998934500123405e-01
92, 1.049000024800000e-02, -1.747168563567549e-02, 1.245055261111889e+00, 5.469983506961799e-01, 5.353535938068075e-01
93, 7.519999985000000e-03, -1.492973299938194e-02, 1.309369507837915e+00, 6.905569371382038e-01, 4.598765601542712e-01
94, 5.040000193000000e-03, -1.233070961242091e-02, 1.377178368908469e+00, 8.419160020278323e-01, 3.712635944010448e-01
95, 3.049999941000000e-03, -9.673088316923322e-03, 1.443414344934941e+00, 9.897641628012077e-01, 2.683127843985262e-01
96, 1.560000004000000e-03, -6.972116381681001e-03, 1.495266410841459e+00, 1.105505381342543e+00, 1.524107383318213e-01
97, 5.600000150000000e-04, -4.206659337413923e-03, 1.523656368439149e+00, 1.168875822408815e+00, 2.333480405477895e-02
98, 5.999999800000000e-05, -1.384106602871954e-03, 1.507280671693496e+00, 1.132322927887269e+00, 1.112197029561824e-01
99, 0.000000000000000e+00, 0.000000000000000e+00, 1.462237903518025e+00, 1.031781034638448e+00, 2.150001246412144e-01
100, 5.999999800000000e-05, 1.263838413514334e-03, 1.420688827091064e+00, 9.390375604711256e-01, 3.138800836421991e-01
101, 5.600000150000000e-04, 3.625495539717833e-03, 1.321154577321707e+00, 7.168628958073813e-01, 4.616115245863248e-01
102, 1.560000004000000e-03, 5.789704366086694e-03, 1.150035596077473e+00, 3.349008841015024e-01, 6.263822667427846e-01
103, 3.049999941000000e-03, 7.808166750586125e-03, 1.013103498097581e+00, 2.924887968210154e-02, 7.606409538816813e-01
104, 5.040000193000000e-03, 9.725883296833309e-03, 9.080435849256824e-01, -2.052598550766018e-01, 8.671434968742971e-01
105, 7.519999985000000e-03, 1.155059019025093e-02, 8.318301876485508e-01, -3.753790454273421e-01, 9.492603541330036e-01
106, 1.049000024800000e-02, 1.329726461964180e-02, 7.800843878938433e-01, -4.908830627369570e-01, 1.008849343849752e+00
107, 1.394999958600000e-02, 1.497641518069786e-02, 7.460912557623693e-01, -5.667605898161399e-01, 1.050142568598480e+00
108, 1.789999939500000e-02, 1.659595394644431e-02, 7.233648161733006e-01, -6.174892496131683e-01, 1.078502657588785e+00
109, 2.232000045500000e-02, 1.815549538796164e-02, 7.080659658040873e-01, -6.516384691873052e-01, 1.097913908878223e+00
110, 2.723000012300000e-02, 1.966818600217580e-02, 6.978063229984696e-01, -6.745394575927018e-01, 1.111133462728651e+00
111, 3.260000050100000e-02, 2.112990064184776e-02, 6.910437901768954e-01, -6.896343969265727e-01, 1.119804315440658e+00
112, 3.844000026600000e-02, 2.254833538601350e-02, 6.869239452914523e-01, -6.988304792601512e-01, 1.125191561384215e+00
199, 1.000000000000000e+00, 0.000000000000000e+00, 1.279255304881984e+00, 6.233377341115722e-01, 4.554103403821783e-01
0, 9.997500181200000e-01, -3.633242825685433e-05, 1.290549141288811e+00, 6.485471903768094e-01, 4.935175589796639e-01
1, 9.990000128750000e-01, -1.454723559152188e-04, 1.264207225600217e+00, 5.897482714290549e-01, 5.210690268415892e-01
2, 9.977599978450000e-01, -3.275076834255022e-04, 1.248340485701712e+00, 5.543314412984637e-01, 5.398339019567183e-01
3, 9.960200190539999e-01, -5.899288169175967e-04, 1.238438895002462e+00, 5.322296763447805e-01, 5.517289425246076e-01
4, 9.937800168990000e-01, -9.471008693166610e-04, 1.231535519479866e+00, 5.168203559818439e-01, 5.596423062396629e-01
5, 9.910500049590000e-01, -1.422113216540957e-03, 1.224780988507068e+00, 5.017432779175615e-01, 5.674001934958216e-01
6, 9.878399968150000e-01, -2.045556304997134e-03, 1.214697245110957e+00, 4.792349221226719e-01, 5.780644290123036e-01
7, 9.841300249100000e-01, -2.853752192521921e-03, 1.198782003570928e+00, 4.437098293993924e-01, 5.946512524011248e-01
183, 9.375399947170000e-01, 5.284120380943912e-03, 1.144306658284476e+00, 3.221130765278479e-01, 6.495093622231202e-01
184, 9.449599981310000e-01, 4.426554327775402e-03, 1.155530091695859e+00, 3.471653832496844e-01, 6.379726432996922e-01
185, 9.519400000570000e-01, 3.731400937368023e-03, 1.162396312775223e+00, 3.624917695875519e-01, 6.311746341756803e-01
186, 9.584699869160000e-01, 3.204776204866461e-03, 1.163335317582763e+00, 3.645877624615235e-01, 6.306910398261595e-01
187, 9.645400047300000e-01, 2.826500084269889e-03, 1.157883317760276e+00, 3.524181200006153e-01, 6.368252776703421e-01
