"PointID"	"x"	"y"	"Conservative_1"	"Conservative_2"	"Conservative_3"	"Conservative_4"	"Pressure"	"Temperature"	"Pressure_Coefficient"	"Mach"
0	9.997500181200000e-01	-3.633236398810108e-05	1.199683544379411e+00	7.198543614546151e-01	1.010322614968369e-01	3.446047188918975e+00	1.290329341949500e+00	1.075558090293703e+00	6.480565668515622e-01	4.937792697420456e-01	
1	9.990000128750000e-01	-1.454682973850905e-04	1.181374170182031e+00	7.463334809532258e-01	1.067001175436642e-01	3.400226710023366e+00	1.263864002535853e+00	1.069825322438794e+00	5.889821485175299e-01	5.214570777059222e-01	
2	9.977599978450000e-01	-3.274631587342839e-04	1.170847363189794e+00	7.645639301993372e-01	1.128750886937376e-01	3.374685080902331e+00	1.247845568568311e+00	1.065762803760131e+00	5.532267155542666e-01	5.403824520411991e-01	
3	9.960200190539999e-01	-5.896883026525893e-04	1.164291116834638e+00	7.755384423537650e-01	1.197036086588044e-01	3.358875451745182e+00	1.237770995305232e+00	1.063111259210123e+00	5.307388288063215e-01	5.524601316769026e-01	
4	9.937800168990000e-01	-9.462313417983008e-04	1.159602851490348e+00	7.816082896128829e-01	1.299798526821958e-01	3.347440434494321e+00	1.230696640043910e+00	1.061308738989553e+00	5.149478572408713e-01	5.605555610556098e-01	
5	9.910500049590000e-01	-1.419707943324140e-03	1.155044333326541e+00	7.865413025445775e-01	1.443726694898884e-01	3.336335724686725e+00	1.223804221798010e+00	1.059530085978120e+00	4.995629950848429e-01	5.684572296976932e-01	
6	9.878399968150000e-01	-2.040082368967725e-03	1.148111619349202e+00	7.924609402441575e-01	1.625448353231650e-01	3.319119977675895e+00	1.213649464398563e+00	1.057083165038004e+00	4.768961258896489e-01	5.791938866939047e-01	
7	9.841300249100000e-01	-2.843000089039446e-03	1.137210599894603e+00	8.021638727645116e-01	1.826120718573640e-01	3.291973241161893e+00	1.197758740889681e+00	1.053242680819797e+00	4.414257609144671e-01	5.957520428347651e-01	
8	9.799500107769999e-01	-3.840385277703529e-03	1.121128037803089e+00	8.171073135783100e-01	2.014676587147947e-01	3.251845914323981e+00	1.174391765603697e+00	1.047509049818236e+00	3.892673339368228e-01	6.198637874893688e-01	
9	9.752799868580000e-01	-5.029376741722711e-03	1.099963022233088e+00	8.373374633951142e-01	2.152476821773943e-01	3.198989389596893e+00	1.143688352193453e+00	1.039751636261004e+00	3.207329290032431e-01	6.514614074333976e-01	
10	9.701499938960000e-01	-6.363792448189966e-03	1.074953253839944e+00	8.611538620934035e-01	2.208266392294173e-01	3.136419258487456e+00	1.107519378089960e+00	1.030295386458605e+00	2.399986118079458e-01	6.886132244770010e-01	
11	9.645400047300000e-01	-7.786122941189692e-03	1.048697001837595e+00	8.852750684762308e-01	2.166662502128325e-01	3.070496575209058e+00	1.069781811995776e+00	1.020105721787356e+00	1.557629732048572e-01	7.272337442997685e-01	
12	9.584699869160000e-01	-9.222232983391226e-03	1.025500576625826e+00	9.061287378844062e-01	2.037466889265083e-01	3.012089233672263e+00	1.036609166340733e+00	1.010832358331243e+00	8.171688915342255e-02	7.613085401827412e-01	
13	9.519400000570000e-01	-1.061770394647828e-02	1.009246925735702e+00	9.213827675914917e-01	1.858152498098022e-01	2.971146017905631e+00	1.013382617690331e+00	1.004097799903244e+00	2.987191448734673e-02	7.855020190614892e-01	
14	9.449599981310000e-01	-1.194507414841384e-02	1.001009880064761e+00	9.304649411459356e-01	1.675154373683264e-01	2.950423955609968e+00	1.001584645919365e+00	1.000574185995615e+00	3.537156070011958e-03	7.979938913336413e-01	
15	9.375399947170000e-01	-1.320871097075137e-02	9.989658415312209e-01	9.343650808968781e-01	1.524482136389011e-01	2.945271411718703e+00	9.986672815166168e-01	9.997011309073930e-01	-2.974818043266145e-03	8.010723772890099e-01	
16	9.296900033950000e-01	-1.443553212095405e-02	1.000025616288985e+00	9.351110197648240e-01	1.422192127885853e-01	2.947892791492603e+00	1.000229915293574e+00	1.000204293771341e+00	5.132037802987877e-04	7.992989621705903e-01	
17	9.214000105860000e-01	-1.566329112556964e-02	1.001409546594879e+00	9.347646725496528e-01	1.365880066946670e-01	2.951302510985869e+00	1.002283982457763e+00	1.000873205039694e+00	5.098175128934675e-03	7.969380227141853e-01	
18	9.126999974250000e-01	-1.691883592254596e-02	1.001402469545937e+00	9.347623201486335e-01	1.342227837347778e-01	2.951191450069160e+00	1.002367102976437e+00	1.000963282456191e+00	5.283712000975811e-03	7.966197990798001e-01	
19	9.035800099370001e-01	-1.822295770400193e-02	9.994142693026878e-01	9.357067318863979e-01	1.335169000188310e-01	2.946063273079555e+00	9.996458224607380e-01	1.000231688865331e+00	-7.905748644241853e-04	7.992023453868882e-01	
20	8.940600156780000e-01	-1.957928005223743e-02	9.956596280551256e-01	9.376508176618069e-01	1.331935319021070e-01	2.936466857934329e+00	9.944188328699999e-01	9.987537958252368e-01	-1.245796234375027e-02	8.044055061874221e-01	
21	8.841500282290000e-01	-2.098329247378215e-02	9.906844798359696e-01	9.402978134086236e-01	1.324989935821763e-01	2.923773341638693e+00	9.874703566261082e-01	9.967556540197405e-01	-2.796795395958000e-02	8.114114792183387e-01	
22	8.738499879840000e-01	-2.242693296318299e-02	9.850630950422709e-01	9.432769181613221e-01	1.311498407523595e-01	2.909425163816554e+00	9.796251859488577e-01	9.944796337201328e-01	-4.547949564987115e-02	8.193526011920297e-01	
23	8.631799817090000e-01	-2.389824442562398e-02	9.792590827728253e-01	9.463016731725945e-01	1.291714168321301e-01	2.894596004727118e+00	9.715399794156003e-01	9.921174043794746e-01	-6.352683166160641e-02	8.275518895850411e-01	
24	8.521599769590000e-01	-2.538666704543952e-02	9.735455470099623e-01	9.491863140012100e-01	1.267278502107630e-01	2.879975290770810e+00	9.636035308994214e-01	9.897878264236578e-01	-8.124211852807721e-02	8.355968231774847e-01	
25	8.407700061800000e-01	-2.688907562169451e-02	9.680330180761907e-01	9.518651403351835e-01	1.240149437298918e-01	2.865847295993800e+00	9.559679425221651e-01	9.875365040977602e-01	-9.828584258445290e-02	8.433341518796943e-01	
26	8.290500044819999e-01	-2.839625193586448e-02	9.627145946181268e-01	9.543321064477365e-01	1.211642676800298e-01	2.852194557684880e+00	9.486234302699252e-01	9.853630926268540e-01	-1.146798431474883e-01	8.507700573463134e-01	
27	8.170099854470000e-01	-2.990434688442520e-02	9.575459923929790e-01	9.566280331823730e-01	1.182642590321136e-01	2.838911238459220e+00	9.415009963526196e-01	9.832436288514336e-01	-1.305781331414740e-01	8.579905828772432e-01	
28	8.046399950980000e-01	-3.141252639547624e-02	9.524645492143993e-01	9.587630541067997e-01	1.153412400664219e-01	2.825831957637936e+00	9.345186298986252e-01	9.811584385680540e-01	-1.461637725477116e-01	8.650655992241963e-01	
29	7.919700145720000e-01	-3.291514500732182e-02	9.474395224150285e-01	9.607687363106592e-01	1.123840466679224e-01	2.812882098658711e+00	9.276295746048855e-01	9.790910687790951e-01	-1.615411281140949e-01	8.720528763316547e-01	
30	7.790099978450000e-01	-3.440895391677488e-02	9.424551864001897e-01	9.626798177937416e-01	1.093822113334094e-01	2.800028642135719e+00	9.208047649522332e-01	9.770276382788529e-01	-1.767750782316224e-01	8.790005909907905e-01	
31	7.657799720760000e-01	-3.588936134983843e-02	9.374689700332337e-01	9.644888449037559e-01	1.063161308465086e-01	2.787154733844302e+00	9.139929833723901e-01	9.749581187097732e-01	-1.919799478294864e-01	8.859432734676188e-01	
32	7.522799968720000e-01	-3.735383961529688e-02	9.324469485977198e-01	9.662094832019419e-01	1.031745275272417e-01	2.774173433070693e+00	9.071472351099003e-01	9.728673963426371e-01	-2.072606359154012e-01	8.929319147888386e-01	
33	7.385200262070000e-01	-3.879857729248427e-02	9.274046567488068e-01	9.678405119218200e-01	9.995039117294298e-02	2.761125636369700e+00	9.002879548821501e-01	9.707606580694567e-01	-2.225715292809150e-01	8.999492905856843e-01	
34	7.245299816130000e-01	-4.021773773789389e-02	9.223908727519817e-01	9.693696130975024e-01	9.662987504033771e-02	2.748137048236948e+00	8.934820156858928e-01	9.686587780516103e-01	-2.377633578439893e-01	9.069264417186410e-01	
35	7.103199958800001e-01	-4.160772215414861e-02	9.174516012995020e-01	9.707844947505315e-01	9.322746176653256e-02	2.735326379054698e+00	8.867923348640050e-01	9.665821429794550e-01	-2.526956811071317e-01	9.137969381778296e-01	
36	6.958900094030001e-01	-4.296599281672538e-02	9.126048637142963e-01	9.721002529850336e-01	8.973917944580609e-02	2.722745298857500e+00	8.802383906341843e-01	9.645339682407779e-01	-2.673250209058387e-01	9.205517042300656e-01	
37	6.812700033190000e-01	-4.428736537486288e-02	9.078535336542437e-01	9.732971349361109e-01	8.618273940502699e-02	2.710395190512898e+00	8.738301450898285e-01	9.625232625052789e-01	-2.816291404244900e-01	9.271626922735111e-01	
38	6.664699912070000e-01	-4.556884182901084e-02	9.032083938618477e-01	9.743859097458745e-01	8.256409596264419e-02	2.698307292973362e+00	8.675789304079977e-01	9.605523335522725e-01	-2.955827446250051e-01	9.336240468075004e-01	
39	6.514999866490000e-01	-4.680763735190423e-02	8.986842588217350e-01	9.753810952258135e-01	7.889420565515644e-02	2.686524817169648e+00	8.615000237600945e-01	9.586236938094448e-01	-3.091517326783605e-01	9.399292250693712e-01	
40	6.363800168040000e-01	-4.800041675894005e-02	8.942803432409570e-01	9.762639768611618e-01	7.518585092658760e-02	2.675039303843212e+00	8.555987835060301e-01	9.567455999371060e-01	-3.223241439597542e-01	9.460529625148935e-01	
41	6.211299896240000e-01	-4.914422902572447e-02	8.900054735071143e-01	9.770687602349821e-01	7.144475069024020e-02	2.663884015202679e+00	8.498767943764646e-01	9.549118737747528e-01	-3.350964411239630e-01	9.520170495664753e-01	
42	6.057599782940000e-01	-5.023717047132008e-02	8.858408763903365e-01	9.777695070990925e-01	6.768921315295723e-02	2.653000689757422e+00	8.443182005342129e-01	9.531262589446969e-01	-3.475040166647033e-01	9.578108202861171e-01	
43	5.902799963950000e-01	-5.127754132827337e-02	8.818009323582442e-01	9.784023512124441e-01	6.391984835452209e-02	2.642437914007824e+00	8.389311893281896e-01	9.513838764998741e-01	-3.595285952495769e-01	9.634515075643783e-01	
44	5.747100114820000e-01	-5.226321052855856e-02	8.779006394625576e-01	9.789347002267735e-01	6.014394318181347e-02	2.632224295283073e+00	8.337463668113266e-01	9.497047038509260e-01	-3.711018597961459e-01	9.688759072711794e-01	
45	5.590599775310000e-01	-5.319293280281171e-02	8.741924204708024e-01	9.794059712168872e-01	5.635155508238124e-02	2.622509669681906e+00	8.288208665840567e-01	9.480988935338627e-01	-3.820962799463020e-01	9.740528911256828e-01	
46	5.433599948880000e-01	-5.406450955539167e-02	8.706677940780260e-01	9.797939012174417e-01	5.254606668605167e-02	2.613263551638208e+00	8.241516845149545e-01	9.465742159300511e-01	-3.925185613505481e-01	9.789591035776223e-01	
47	5.276100039480000e-01	-5.487764852084024e-02	8.672616249050434e-01	9.801499797469275e-01	4.873929620012018e-02	2.604329962589977e+00	8.196376425364175e-01	9.450869483890284e-01	-4.025945479097824e-01	9.837364975738820e-01	
48	5.118399858470000e-01	-5.563058701374807e-02	8.638243664198513e-01	9.804432073577374e-01	4.495652116311465e-02	2.595304543883126e+00	8.150926905464714e-01	9.435861295793846e-01	-4.127395300301978e-01	9.885491733454165e-01	
49	4.960500001910000e-01	-5.632315494934296e-02	8.603493503867851e-01	9.807105182431423e-01	4.120207961141769e-02	2.586181728424580e+00	8.104960633817050e-01	9.420546002822372e-01	-4.229998585229799e-01	9.934519816923478e-01	
50	4.802699983120000e-01	-5.695388516949679e-02	8.570568302673203e-01	9.808908785227819e-01	3.743705485087182e-02	2.577520991831562e+00	8.061578583279388e-01	9.406119056031493e-01	-4.326833519465651e-01	9.980628817391517e-01	
51	4.645099937920000e-01	-5.752226373484626e-02	8.543217869464416e-01	9.810097176191145e-01	3.360059169836456e-02	2.570315717740645e+00	8.025651272271093e-01	9.394178393783879e-01	-4.407028410109168e-01	1.001873758184993e+00	
52	4.487800002100000e-01	-5.802770919353967e-02	8.522554456566258e-01	9.810541097377250e-01	2.966734377640316e-02	2.564852122859372e+00	7.998707612541228e-01	9.385340572835617e-01	-4.467170507720473e-01	1.004691261787740e+00	
53	4.331099987030000e-01	-5.846902238132249e-02	8.505205138523558e-01	9.810864509685364e-01	2.562627634199836e-02	2.560262109210322e+00	7.976112283918826e-01	9.377918761526101e-01	-4.517606509109764e-01	1.007055340218234e+00	
54	4.174999892710000e-01	-5.884587009595078e-02	8.483606344940346e-01	9.811320693250606e-01	2.152086351643760e-02	2.554565582054831e+00	7.947805058360367e-01	9.368427453143754e-01	-4.580792280445610e-01	1.010075989462327e+00	
55	4.019699990750000e-01	-5.915725985361885e-02	8.449534686748866e-01	9.812208111474066e-01	1.740826213123376e-02	2.545613646451691e+00	7.902808750800963e-01	9.352951427248041e-01	-4.681230466962137e-01	1.014995083271617e+00	
56	3.865399956700000e-01	-5.940221386214067e-02	8.398185491642299e-01	9.812622186921862e-01	1.333858358017164e-02	2.532121238073923e+00	7.835005103337725e-01	9.329402299026335e-01	-4.832577894335434e-01	1.022465838665493e+00	
57	3.712300062180000e-01	-5.957976359240414e-02	8.332559646763359e-01	9.811556181010911e-01	9.280995330325531e-03	2.514853267936846e+00	7.748592568519131e-01	9.299174439788070e-01	-5.025463016698367e-01	1.032030845161847e+00	
58	3.560400009160000e-01	-5.968905461684583e-02	8.263723216629582e-01	9.807736024422841e-01	5.094966725064500e-03	2.496676250314975e+00	7.658595037465927e-01	9.267729371736559e-01	-5.226350362799269e-01	1.041953111969564e+00	
59	3.409900069240000e-01	-5.972888134241310e-02	8.205219066088295e-01	9.802386205171001e-01	6.512632950719021e-04	2.481176580777727e+00	7.582616076505888e-01	9.241211009032547e-01	-5.395946257799357e-01	1.050299753182333e+00	
60	3.261100053790000e-01	-5.969810671325157e-02	8.165044486959107e-01	9.797307329004559e-01	-4.066437958934928e-03	2.470499071789806e+00	7.530781063677132e-01	9.223196610508378e-01	-5.511649411434973e-01	1.055959267047690e+00	
61	3.113999962810000e-01	-5.959555350835432e-02	8.143660822346824e-01	9.793407153590877e-01	-9.024638099275790e-03	2.464787184171084e+00	7.503476756287552e-01	9.213886629091235e-01	-5.572596526143858e-01	1.058880917222426e+00	
62	2.968699932100000e-01	-5.941985979737880e-02	8.137293904587403e-01	9.791253037098611e-01	-1.421100768658739e-02	2.463070450287716e+00	7.495507363978765e-01	9.211302248470062e-01	-5.590385348261685e-01	1.059691562037863e+00	
63	2.825500071050000e-01	-5.916994262702006e-02	8.141255096751745e-01	9.790070857257286e-01	-1.961682348576255e-02	2.464097074100739e+00	7.500880006170358e-01	9.213419696384547e-01	-5.578392843369736e-01	1.059027393206681e+00	
64	2.684499919410000e-01	-5.884454464531172e-02	8.152511996519243e-01	9.789808875004994e-01	-2.528335041136406e-02	2.467074813600406e+00	7.515545093944681e-01	9.218686335148583e-01	-5.545658272444909e-01	1.057374948676625e+00	
65	2.545700073240000e-01	-5.844202369078209e-02	8.169277957142659e-01	9.789565232659694e-01	-3.123942903430792e-02	2.471508469737834e+00	7.537400911866132e-01	9.226520325796903e-01	-5.496872964584526e-01	1.054915692395307e+00	
66	2.409400045870000e-01	-5.796158394932115e-02	8.191230070777367e-01	9.789566272802886e-01	-3.754049803528206e-02	2.477325031527208e+00	7.565902714985565e-01	9.236589193089951e-01	-5.433252868335793e-01	1.051752567529923e+00	
67	2.275699973110000e-01	-5.740201458037580e-02	8.217644687549467e-01	9.789110303277888e-01	-4.420267597138987e-02	2.484315106555355e+00	7.600287440968668e-01	9.248741859676468e-01	-5.356501247837794e-01	1.047931322704393e+00	
68	2.144699990750000e-01	-5.676211257251906e-02	8.247706732271602e-01	9.788326270074292e-01	-5.125854382243058e-02	2.492274299221493e+00	7.639381116536320e-01	9.262430593761263e-01	-5.269238579159999e-01	1.043622405951252e+00	
69	2.016600072380000e-01	-5.604130191486001e-02	8.280283207723778e-01	9.786553420232977e-01	-5.872693839848617e-02	2.500888071830496e+00	7.681856017639361e-01	9.277286567292523e-01	-5.174428532054998e-01	1.038940328772496e+00	
70	1.891400069000000e-01	-5.523800876323365e-02	8.315476925904836e-01	9.783912877135660e-01	-6.665206248474226e-02	2.510192812788617e+00	7.727754167765386e-01	9.293218220221932e-01	-5.071977304095121e-01	1.033912427456314e+00	
71	1.769299954180000e-01	-5.435194258582834e-02	8.354800810072086e-01	9.779858500441201e-01	-7.509542548690427e-02	2.520573599109105e+00	7.779197847071100e-01	9.311051243367683e-01	-4.957147662787724e-01	1.028275878516086e+00	
72	1.650400012730000e-01	-5.338239713514144e-02	8.400661740123638e-01	9.774384380699315e-01	-8.412588954812988e-02	2.532670856804617e+00	7.839285212928063e-01	9.331747254487940e-01	-4.823024078285573e-01	1.021722686775762e+00	
73	1.534900069240000e-01	-5.232974737468766e-02	8.453803581809570e-01	9.766688380695533e-01	-9.377547243403025e-02	2.546664035359943e+00	7.909158564945826e-01	9.355739683808505e-01	-4.667056774674495e-01	1.014109391915882e+00	
74	1.422899961470000e-01	-5.119386225241651e-02	8.513551445026609e-01	9.756637392080888e-01	-1.040862624610333e-01	2.562384411325129e+00	7.987840659605945e-01	9.382501193755317e-01	-4.491427099093873e-01	1.005595907961842e+00	
75	1.314399987460000e-01	-4.997362959196392e-02	8.578459860601497e-01	9.742841336081967e-01	-1.151073602520734e-01	2.579420630913424e+00	8.073738288849317e-01	9.411640807378227e-01	-4.299691319532775e-01	9.962989680257017e-01	
76	1.209499984980000e-01	-4.866896128089829e-02	8.649107279017162e-01	9.725498884361730e-01	-1.269469567141003e-01	2.597949789785267e+00	8.167364233585379e-01	9.443014140198613e-01	-4.090704835746922e-01	9.862564921036034e-01	
77	1.108499988910000e-01	-4.728282857727006e-02	8.727205230187145e-01	9.703657561610448e-01	-1.396686599494988e-01	2.618412245345394e+00	8.271072073994067e-01	9.477343382947698e-01	-3.859214120548958e-01	9.752267886989189e-01	
78	1.011300012470000e-01	-4.581320656320716e-02	8.813318637985372e-01	9.675047456872676e-01	-1.533469722855709e-01	2.640910121248827e+00	8.386070908194245e-01	9.515224914313560e-01	-3.602520294209274e-01	9.630032201640160e-01	
79	9.181000292300000e-02	-4.426238647457827e-02	8.907830618432936e-01	9.638110518143186e-01	-1.681022738797157e-01	2.665528972558620e+00	8.513017733603067e-01	9.556779981859014e-01	-3.319156844636012e-01	9.495270494380628e-01	
80	8.290000259900000e-02	-4.263165490128405e-02	9.011847427392183e-01	9.591964112466985e-01	-1.840504649007500e-01	2.692573630371880e+00	8.653231762348524e-01	9.602061987918683e-01	-3.006179101900615e-01	9.347569067916885e-01	
81	7.440000027400000e-02	-4.092052746899970e-02	9.125939857877543e-01	9.533733253297667e-01	-2.013009322881436e-01	2.722154540579688e+00	8.807862037302542e-01	9.651457465720166e-01	-2.661022238163969e-01	9.185362988299220e-01	
82	6.633000075800000e-02	-3.913271082085108e-02	9.251586326612748e-01	9.460812121467072e-01	-2.200057708987423e-01	2.754646608814169e+00	8.978996324116975e-01	9.705358634862812e-01	-2.279026062238896e-01	9.006966267955401e-01	
83	5.869000032500000e-02	-3.726805472652900e-02	9.389939304007544e-01	9.369105521202457e-01	-2.402976086554273e-01	2.790309678614022e+00	9.168586167702142e-01	9.764265636721499e-01	-1.855834447093433e-01	8.810196363604462e-01	
84	5.149000138000000e-02	-3.532872544501461e-02	9.542854631483503e-01	9.253541486784769e-01	-2.622944192528555e-01	2.829584578123438e+00	9.379550185520359e-01	9.828872541530316e-01	-1.384932621606342e-01	8.592017528129992e-01	
85	4.473999887700000e-02	-3.331737950395130e-02	9.713046399793990e-01	9.106930886807856e-01	-2.861141190493956e-01	2.873114561203044e+00	9.616171128733562e-01	9.900262732130590e-01	-8.567608733625857e-02	8.347752048510514e-01	
86	3.844000026600000e-02	-3.123382986298799e-02	9.902756734042761e-01	8.920105039389672e-01	-3.118308095433174e-01	2.921405447572604e+00	9.882242757766488e-01	9.979284580216184e-01	-2.628509871283741e-02	8.073033101716073e-01	
