"PointID"	"x"	"y"	"Conservative_1"	"Conservative_2"	"Conservative_3"	"Conservative_4"	"Pressure"	"Temperature"	"Pressure_Coefficient"	"Mach"
0	9.997500181200000e-01	-3.633242780651899e-05	1.199828603861714e+00	7.195755807749779e-01	1.010184833213295e-01	3.446400560230813e+00	1.290548694992116e+00	1.075610875452056e+00	6.485461941788311e-01	4.935186503471020e-01	
1	9.990000128750000e-01	-1.454723274621803e-04	1.181603455878434e+00	7.459510823419664e-01	1.066668851277525e-01	3.400790142524022e+00	1.264205836816003e+00	1.069907023821423e+00	5.897451714642923e-01	5.210709658480945e-01	
2	9.977599978450000e-01	-3.275073709799948e-04	1.171178962170558e+00	7.640418448641862e-01	1.128620836581026e-01	3.375501888963139e+00	1.248337964346994e+00	1.065881478978615e+00	5.543258132745403e-01	5.398370421712723e-01	
3	9.960200190539999e-01	-5.899271265362853e-04	1.164739544375163e+00	7.748511337783667e-01	1.197578288168685e-01	3.359981861877515e+00	1.238435031003023e+00	1.063272073987489e+00	5.322210513460325e-01	5.517335048092014e-01	
4	9.937800168990000e-01	-9.470947437914487e-04	1.160166420808958e+00	7.807430056360614e-01	1.301705451066865e-01	3.348831814707915e+00	1.231530287538819e+00	1.061511749909208e+00	5.168086775420077e-01	5.596483350318839e-01	
5	9.910500049590000e-01	-1.422096214786332e-03	1.155701219528841e+00	7.855164967478281e-01	1.447847430605122e-01	3.337958814887161e+00	1.224774576356943e+00	1.059767486319918e+00	5.017289650824618e-01	5.674074608026775e-01	
6	9.878399968150000e-01	-2.045517429007780e-03	1.148816523211582e+00	7.913224044987038e-01	1.632540746034930e-01	3.320862389281934e+00	1.214690072179031e+00	1.057340356476852e+00	4.792189111139090e-01	5.780724791372750e-01	
7	9.841300249100000e-01	-2.853675334460409e-03	1.137898719009337e+00	8.009875690541349e-01	1.836655622980240e-01	3.293674056142396e+00	1.198774678298583e+00	1.053498574409369e+00	4.436934783450506e-01	5.946594353916432e-01	
8	9.799500107769999e-01	-3.858885814858783e-03	1.121717450392092e+00	8.159969686295140e-01	2.028710669955859e-01	3.253302009390587e+00	1.175262726940303e+00	1.047735083847983e+00	3.912114440631765e-01	6.189261630571462e-01	
9	9.752799868580000e-01	-5.058308007892695e-03	1.100362597488258e+00	8.364038319505942e-01	2.169487506524304e-01	3.199973549459635e+00	1.144281766285707e+00	1.039913360284783e+00	3.220575140305950e-01	6.508136694353556e-01	
10	9.701499938960000e-01	-6.405125255473767e-03	1.075073914374908e+00	8.604923621514514e-01	2.227164237916616e-01	3.136707810934033e+00	1.107707237379481e+00	1.030354492438361e+00	2.404179405791976e-01	6.883852126972876e-01	
11	9.645400047300000e-01	-7.840863558090669e-03	1.048462948658919e+00	8.849352459139371e-01	2.185973115168037e-01	3.069894390367765e+00	1.069459990417582e+00	1.020026498585878e+00	1.550446214678167e-01	7.275289602968318e-01	
12	9.584699869160000e-01	-9.290185257616773e-03	1.024895789836149e+00	9.060895214728706e-01	2.055578383560005e-01	3.010548084090489e+00	1.035762644313971e+00	1.010602887225792e+00	7.982733105797030e-02	7.621401904537974e-01	
13	9.519400000570000e-01	-1.069773433683949e-02	1.008361436871303e+00	9.215744359933994e-01	1.873922406881973e-01	2.968892193959956e+00	1.012140551531130e+00	1.003747777851910e+00	2.709944538198642e-02	7.867478723780499e-01	
14	9.449599981310000e-01	-1.203556195333087e-02	9.999878849229896e-01	9.308007577196850e-01	1.688254410650931e-01	2.947824547026613e+00	1.000149234422609e+00	1.000161351454405e+00	3.331125504666450e-04	7.994504324608889e-01	
15	9.375399947170000e-01	-1.330806553921875e-02	9.979297351658940e-01	9.347635662780542e-01	1.535253067222489e-01	2.942636480750117e+00	9.972116809159394e-01	9.992804561036204e-01	-6.223926526921051e-03	8.025534538150673e-01	
16	9.296900033950000e-01	-1.454255504476138e-02	9.990391169639585e-01	9.355176424384630e-01	1.431299185222306e-01	2.945383004236127e+00	9.988450209273678e-01	9.998057172804401e-01	-2.578078287125398e-03	8.007039702503987e-01	
17	9.214000105860000e-01	-1.577731132366200e-02	1.000481867827032e+00	9.351569716890228e-01	1.373986623529222e-01	2.948940977980757e+00	1.000983058750338e+00	1.000500949531844e+00	2.194327567717996e-03	7.982524151626802e-01	
18	9.126999974250000e-01	-1.703958557825662e-02	1.000509132867538e+00	9.351404940349858e-01	1.349800018270528e-01	2.948915924033209e+00	1.001115755790567e+00	1.000606314228528e+00	2.490526318230895e-03	7.978805147401187e-01	
19	9.035800099370001e-01	-1.835041055357718e-02	9.985207414430094e-01	9.360798266312971e-01	1.342418682303508e-01	2.943785495640994e+00	9.983959718849137e-01	9.998750456020421e-01	-3.580419899746225e-03	8.004596863171658e-01	
20	8.940600156780000e-01	-1.971343220179034e-02	9.947371728564994e-01	9.380285805246117e-01	1.338884395545833e-01	2.934113301136832e+00	9.931305560272252e-01	9.983848830896100e-01	-1.533358029637228e-02	8.057015083750284e-01	
21	8.841500282290000e-01	-2.112403966156514e-02	9.897155607317443e-01	9.406857938344547e-01	1.331561871223699e-01	2.921298837225477e+00	9.861195871266987e-01	9.963666595255039e-01	-3.098306444933333e-02	8.127716496313578e-01	
22	8.738499879840000e-01	-2.257402714111428e-02	9.840411807464565e-01	9.436757679391781e-01	1.317596271823673e-01	2.906812505993758e+00	9.782033437282697e-01	9.940674870804103e-01	-4.865325060654092e-02	8.207862789449882e-01	
23	8.631799817090000e-01	-2.405129360777992e-02	9.781856607743930e-01	9.467081594035701e-01	1.297263384233508e-01	2.891848351730935e+00	9.700497788684621e-01	9.916826812821098e-01	-6.685317216861136e-02	8.290562392252022e-01	
24	8.521599769590000e-01	-2.554518132933647e-02	9.724266710163486e-01	9.495962532827270e-01	1.272245692784838e-01	2.877107780368996e+00	9.620537334446655e-01	9.893329359623163e-01	-8.470148784672882e-02	8.371631400737813e-01	
25	8.407700061800000e-01	-2.705253259542211e-02	9.668750588764657e-01	9.522742823944206e-01	1.244538227244135e-01	2.862875933269282e+00	9.543676957666694e-01	9.870641371964544e-01	-1.018578219493988e-01	8.449530712130406e-01	
26	8.290500044819999e-01	-2.856410278014071e-02	9.615222074407057e-01	9.547372969255505e-01	1.215476882904926e-01	2.849131084871454e+00	9.469793704454504e-01	9.848751938512539e-01	-1.183496195414053e-01	8.524349088467449e-01	
27	8.170099854470000e-01	-3.007604829476099e-02	9.563215393218328e-01	9.570272824841601e-01	1.185953262602151e-01	2.835761615831901e+00	9.398164888268106e-01	9.827411076543079e-01	-1.343381945830121e-01	8.596982351277250e-01	
28	8.046399950980000e-01	-3.158754654428422e-02	9.512084462376005e-01	9.591547072443656e-01	1.156225570807967e-01	2.822597025096024e+00	9.327944785616077e-01	9.806415010833567e-01	-1.500123246392686e-01	8.668152862108703e-01	
29	7.919700145720000e-01	-3.309294379613099e-02	9.461515129396605e-01	9.611518555412750e-01	1.126170844707029e-01	2.809561076749891e+00	9.258655447673092e-01	9.785594929618373e-01	-1.654786947158277e-01	8.738452373610521e-01	
30	7.790099978450000e-01	-3.458897825270784e-02	9.411347092922078e-01	9.630537509406272e-01	1.095676244194833e-01	2.796620013945500e+00	9.190001587299441e-01	9.764809964570216e-01	-1.808032171206605e-01	8.808369136497152e-01	
31	7.657799720760000e-01	-3.607103318002436e-02	9.361142661869327e-01	9.648526075475536e-01	1.064536528329582e-01	2.783653678027220e+00	9.121456770758520e-01	9.743956587600021e-01	-1.961033993842589e-01	8.878258922974306e-01	
32	7.522799968720000e-01	-3.753655103979494e-02	9.310561467416472e-01	9.665627548530419e-01	1.032637497607097e-01	2.770575057245684e+00	9.052547320115596e-01	9.722880141864882e-01	-2.114849731884831e-01	8.948642715322245e-01	
33	7.385200262070000e-01	-3.898168472632906e-02	9.259768074845123e-01	9.681818997600031e-01	9.999047931168956e-02	2.757427177225923e+00	8.983492692868716e-01	9.701638983024934e-01	-2.268989524846615e-01	9.019326624847830e-01	
34	7.245299816130000e-01	-4.040056281967901e-02	9.209275097664197e-01	9.696974191948257e-01	9.661982942431749e-02	2.744342221098984e+00	8.914994883923399e-01	9.680452358497320e-01	-2.421886419813841e-01	9.089586935518488e-01	
35	7.103199958800001e-01	-4.178955731758146e-02	9.159566107775786e-01	9.710972316455133e-01	9.316669859491823e-02	2.731445181309980e+00	8.847713149028583e-01	9.659533044384645e-01	-2.572068863775484e-01	9.158730933373558e-01	
36	6.958900094030001e-01	-4.314610620258676e-02	9.110828391758208e-01	9.723958680584580e-01	8.962750391151875e-02	2.718789408421706e+00	8.781853331001898e-01	9.638918606946977e-01	-2.719077386156479e-01	9.226650659810888e-01	
37	6.812700033190000e-01	-4.446501322657009e-02	9.063106046076618e-01	9.735744430956247e-01	8.602073466874077e-02	2.706380599798935e+00	8.717532581609023e-01	9.618703055320432e-01	-2.862650487479859e-01	9.293053750383854e-01	
38	6.664699912070000e-01	-4.574327786194010e-02	9.016513162991699e-01	9.746430630836159e-01	8.235277815557723e-02	2.694251416501379e+00	8.654874719834932e-01	9.598915415949136e-01	-3.002511786082742e-01	9.357862955022146e-01	
39	6.514999866490000e-01	-4.697812426060340e-02	8.971214195585721e-01	9.756170797315417e-01	7.863556818681573e-02	2.682449617250046e+00	8.594051360611323e-01	9.579585520140654e-01	-3.138278212921153e-01	9.420998300164448e-01	
40	6.363800168040000e-01	-4.816624190232600e-02	8.927207082222938e-01	9.764774230716069e-01	7.488234302651627e-02	2.670968114543039e+00	8.535125343353620e-01	9.560801339928495e-01	-3.269809501442812e-01	9.482190712839270e-01	
41	6.211299896240000e-01	-4.930471890568933e-02	8.884597414442094e-01	9.772590446049800e-01	7.109993920349184e-02	2.659844965694001e+00	8.478132938843732e-01	9.542506591308635e-01	-3.397024690080955e-01	9.541640889243977e-01	
42	6.057599782940000e-01	-5.039170107413252e-02	8.843209848947172e-01	9.779355771410209e-01	6.730686503656801e-02	2.649024979891588e+00	8.422933787511732e-01	9.524747157859796e-01	-3.520237081447028e-01	9.599215796864276e-01	
43	5.902799963950000e-01	-5.142555058325355e-02	8.803210190988090e-01	9.785441059904829e-01	6.350463036119289e-02	2.638562819533799e+00	8.369635928542830e-01	9.507481642447762e-01	-3.639205516645468e-01	9.655064762799365e-01	
44	5.747100114820000e-01	-5.240421487153456e-02	8.764747363485326e-01	9.790519952666450e-01	5.970077238016882e-02	2.628486685994294e+00	8.318545206982266e-01	9.490912700619332e-01	-3.753247305843156e-01	9.708547856473422e-01	
45	5.590599775310000e-01	-5.332653431812371e-02	8.728337632616389e-01	9.795001413101481e-01	5.588665719100803e-02	2.618944726718307e+00	8.270218384828996e-01	9.475135739392718e-01	-3.861119676720992e-01	9.759374535778891e-01	
46	5.433599948880000e-01	-5.419041573304652e-02	8.693876126703363e-01	9.798658554900297e-01	5.206606544909938e-02	2.609900972817644e+00	8.224601156255390e-01	9.460223537109546e-01	-3.962943847644219e-01	9.807327870220299e-01	
47	5.276100039480000e-01	-5.499566610220157e-02	8.660724263651967e-01	9.802011822605549e-01	4.825104722048446e-02	2.601202999253730e+00	8.180696572153804e-01	9.445741860743934e-01	-4.060945151442402e-01	9.853817238362766e-01	
48	5.118399858470000e-01	-5.574064326348269e-02	8.627410691007010e-01	9.804742868138324e-01	4.446513646063022e-02	2.592452499400154e+00	8.136678853240737e-01	9.431194531775570e-01	-4.159198988301925e-01	9.900440338543086e-01	
49	4.960500001910000e-01	-5.642528712548504e-02	8.593838868855566e-01	9.807243581495213e-01	4.071270350826944e-02	2.583636713238850e+00	8.092294454236527e-01	9.416390716334403e-01	-4.258271307507752e-01	9.947807999278798e-01	
50	4.802699983120000e-01	-5.704825783732601e-02	8.562031683724830e-01	9.808923451395503e-01	3.695742839928522e-02	2.575268337279112e+00	8.050402760969110e-01	9.402444487879844e-01	-4.351779551408237e-01	9.992361739655083e-01	
51	4.645099937920000e-01	-5.760915878144093e-02	8.535527194940954e-01	9.810053141919838e-01	3.314249267455747e-02	2.568285566909020e+00	8.015590204853950e-01	9.390855446638174e-01	-4.429486149879577e-01	1.002933455740308e+00	
52	4.487800002100000e-01	-5.810752408964196e-02	8.515463003402488e-01	9.810481641264064e-01	2.924543829073710e-02	2.562980698094112e+00	7.989425038321960e-01	9.382255592126535e-01	-4.487890539459911e-01	1.005674178861121e+00	
53	4.331099987030000e-01	-5.854227469090857e-02	8.498919923506471e-01	9.810777117752582e-01	2.525328192024066e-02	2.558603264009254e+00	7.967886924578783e-01	9.375175900341237e-01	-4.535966686208073e-01	1.007928599986992e+00	
54	4.174999892710000e-01	-5.891317821649113e-02	8.479169852555365e-01	9.811132291556586e-01	2.119830574665303e-02	2.553390812564786e+00	7.942037727508717e-01	9.366527461547701e-01	-4.593665786810899e-01	1.010680349540644e+00	
55	4.019699990750000e-01	-5.921934364710977e-02	8.448700748344362e-01	9.811870009716560e-01	1.712445496423457e-02	2.545381695925315e+00	7.901836198087155e-01	9.352723493769890e-01	-4.683401343555457e-01	1.015067506807021e+00	
56	3.865399956700000e-01	-5.945988392997131e-02	8.402517430191339e-01	9.812257699093101e-01	1.307672825748989e-02	2.533245080879238e+00	7.840869607040616e-01	9.331571963025453e-01	-4.819487484284340e-01	1.021778274622760e+00	
57	3.712300062180000e-01	-5.963390875348029e-02	8.342100834661732e-01	9.811487887755274e-01	9.041949825676918e-03	2.517352093082264e+00	7.761273475248605e-01	9.303739704272375e-01	-4.997157421320079e-01	1.030588008095364e+00	
58	3.560400009160000e-01	-5.974062501554035e-02	8.276246256283744e-01	9.808247285289937e-01	4.912462969412185e-03	2.499973162736885e+00	7.675067481189036e-01	9.273609367727236e-01	-5.189581515203044e-01	1.040099846947331e+00	
59	3.409900069240000e-01	-5.977887979418815e-02	8.217519863903889e-01	9.803293146544777e-01	5.518608824525968e-04	2.484425920852575e+00	7.598686837359649e-01	9.246934553498909e-01	-5.360074023750783e-01	1.048499882100780e+00	
60	3.261100053790000e-01	-5.974757263741583e-02	8.174784571553887e-01	9.798253845301890e-01	-4.076512935345261e-03	2.473078140080771e+00	7.543444785951994e-01	9.227698564927584e-01	-5.483382174214300e-01	1.054545714621865e+00	
61	3.113999962810000e-01	-5.964554526325701e-02	8.149968625065702e-01	9.794121845110607e-01	-8.951097598313069e-03	2.466460096253334e+00	7.511651323802787e-01	9.216785572278486e-01	-5.554349723654494e-01	1.057971436761824e+00	
62	2.968699932100000e-01	-5.947144156152267e-02	8.140346701550440e-01	9.791625815646959e-01	-1.406055116956968e-02	2.463880301817270e+00	7.499461704169570e-01	9.212705526094113e-01	-5.581558696050067e-01	1.059251446422573e+00	
63	2.825500071050000e-01	-5.922416527443565e-02	8.141590925379518e-01	9.790113536593436e-01	-1.939348910844978e-02	2.464184800125318e+00	7.501328945179448e-01	9.213591070752278e-01	-5.577390747367302e-01	1.058973664806217e+00	
64	2.684499919410000e-01	-5.890243094310175e-02	8.150603518746213e-01	9.789590855696375e-01	-2.498814703273393e-02	2.466565911427556e+00	7.513099744397087e-01	9.217844699619017e-01	-5.551116641970788e-01	1.057639094736626e+00	
65	2.545700073240000e-01	-5.850455741021854e-02	8.165394365729415e-01	9.789152293526703e-01	-3.087256714213214e-02	2.470474972908717e+00	7.532403716198524e-01	9.224788637046627e-01	-5.508027419199725e-01	1.055459470342625e+00	
66	2.409400045870000e-01	-5.802968520572685e-02	8.185470125494142e-01	9.789024850224387e-01	-3.710305036632681e-02	2.475794328949703e+00	7.558469689194013e-01	9.234008032907852e-01	-5.449844443763364e-01	1.052563714840157e+00	
67	2.275699973110000e-01	-5.747653051221183e-02	8.209994275862600e-01	9.788491732925361e-01	-4.369644424254926e-02	2.482284437253701e+00	7.590390483094074e-01	9.245305450954868e-01	-5.378592671665013e-01	1.049012278314464e+00	
68	2.144699990750000e-01	-5.684380417843491e-02	8.238105450054650e-01	9.787688038166217e-01	-5.068633496087571e-02	2.489728909666291e+00	7.626929281607753e-01	9.258110772977733e-01	-5.297032853554123e-01	1.044982763966557e+00	
69	2.016600072380000e-01	-5.613082513908617e-02	8.268677366167675e-01	9.785941766189221e-01	-5.809265821634378e-02	2.497814511333602e+00	7.666771850279207e-01	9.272065544180939e-01	-5.208098548483913e-01	1.040586530841323e+00	
70	1.891400069000000e-01	-5.533591443577455e-02	8.301900956263801e-01	9.783388871238430e-01	-6.596232318005614e-02	2.506601183486567e+00	7.710072580133766e-01	9.287117035907905e-01	-5.111445133629988e-01	1.035838786747082e+00	
71	1.769299954180000e-01	-5.445865282233837e-02	8.339405193037526e-01	9.779490832934820e-01	-7.435941656672217e-02	2.516504574292496e+00	7.759106209123712e-01	9.304148233019909e-01	-5.001995068920286e-01	1.030458861532442e+00	
72	1.650400012730000e-01	-5.349820135644344e-02	8.383659327056118e-01	9.774266688920310e-01	-8.335428076011896e-02	2.528182165789464e+00	7.817046571027041e-01	9.324146254129773e-01	-4.872663903957498e-01	1.024130989729346e+00	
73	1.534900069240000e-01	-5.245478538697027e-02	8.435344005599215e-01	9.766915296812904e-01	-9.297943868868078e-02	2.541796759712874e+00	7.884952859590741e-01	9.347517842019090e-01	-4.721087366984952e-01	1.016720397071712e+00	
74	1.422899961470000e-01	-5.132812399447980e-02	8.493695925176153e-01	9.757310005868012e-01	-1.032775702214772e-01	2.557156671016225e+00	7.961728385614202e-01	9.373691330313408e-01	-4.549713424968300e-01	1.008401130305187e+00	
75	1.314399987460000e-01	-5.011695741977146e-02	8.557250348292736e-01	9.744048601932186e-01	-1.143005362273303e-01	2.573845180601482e+00	8.045757525762963e-01	9.402269652386857e-01	-4.362148379993386e-01	9.992919871446295e-01	
76	1.209499984980000e-01	-4.882103654793440e-02	8.626654950076781e-01	9.727330414117921e-01	-1.261593507606245e-01	2.592057745224286e+00	8.137642746624452e-01	9.433138097811627e-01	-4.157047440570421e-01	9.894215789770471e-01	
77	1.108499988910000e-01	-4.744315109574791e-02	8.703691518450127e-01	9.706208898966943e-01	-1.389206957151327e-01	2.612253478051523e+00	8.239827454795832e-01	9.467049053070191e-01	-3.928956574116447e-01	9.785389378793813e-01	
78	1.011300012470000e-01	-4.598112521277013e-02	8.788931939614785e-01	9.678377928945767e-01	-1.526604806739784e-01	2.634535262097999e+00	8.353540638898477e-01	9.504614094513754e-01	-3.675132502458757e-01	9.664328749214846e-01	
79	9.181000292300000e-02	-4.443707380111420e-02	8.882768418359416e-01	9.642289984674023e-01	-1.675028425373362e-01	2.658991771755137e+00	8.479443988289499e-01	9.545947376905266e-01	-3.394098240425226e-01	9.530470767394786e-01	
80	8.290000259900000e-02	-4.281211649022647e-02	8.986319361241685e-01	9.597042178916871e-01	-1.835662665824474e-01	2.685930889581500e+00	8.618874169634358e-01	9.591106017006107e-01	-3.082870157066164e-01	9.383390499334422e-01	
81	7.440000027400000e-02	-4.110560986879269e-02	9.100173543054894e-01	9.539716554299931e-01	-2.009631145687658e-01	2.715467064743316e+00	8.773011187656449e-01	9.640487784270743e-01	-2.738814313266856e-01	9.221487992250506e-01	
82	6.633000075800000e-02	-3.932109438477670e-02	9.225845059401421e-01	9.467679647432996e-01	-2.198490190550135e-01	2.747984646287921e+00	8.943989233821661e-01	9.694493215781315e-01	-2.357166888790936e-01	9.043050503848070e-01	
83	5.869000032500000e-02	-3.745827011198401e-02	9.364511661860535e-01	9.376762228561323e-01	-2.403587341573268e-01	2.783748990024798e+00	9.133804539062952e-01	9.753636782004129e-01	-1.933472011020197e-01	8.845847413824174e-01	
84	5.149000138000000e-02	-3.551915691662012e-02	9.518073278137064e-01	9.261811402699561e-01	-2.626128587840008e-01	2.823211692031146e+00	9.345442096804681e-01	9.818628018205204e-01	-1.461066748203836e-01	8.626788734909366e-01	
85	4.473999887700000e-02	-3.350627800683638e-02	9.689300630588217e-01	9.115543585375744e-01	-2.867295383283581e-01	2.867030064955014e+00	9.583267654801014e-01	9.890566946129772e-01	-9.302061276763074e-02	8.381135700579103e-01	
86	3.844000026600000e-02	-3.141932375450746e-02	9.880475147674128e-01	8.928641280709831e-01	-3.127798168125513e-01	2.915718516496483e+00	9.851144262258943e-01	9.970314296653955e-01	-3.322672717434310e-02	8.104465151647627e-01	
