"Global_Index", "x_coord", "y_coord", "Pressure", "Pressure_Coefficient", "Mach_Number"
149, 4.960500001910000e-01, 4.651559882768384e-02, 7.662699562760225e-01, -5.217188475981642e-01, 1.039819890814410e+00
150, 5.118399858470000e-01, 4.613912798439507e-02, 7.739826001358344e-01, -5.045031246967981e-01, 1.031522490328005e+00
151, 5.276100039480000e-01, 4.568387746557098e-02, 7.849957704111039e-01, -4.799201553323574e-01, 1.019570379865177e+00
152, 5.433599948880000e-01, 4.514786600293787e-02, 7.967716537797778e-01, -4.536347013844246e-01, 1.006749523961241e+00
153, 5.590599775310000e-01, 4.453038967062949e-02, 8.072063393771434e-01, -4.303429924617336e-01, 9.954685495560334e-01
154, 5.747100114820000e-01, 4.383003707801963e-02, 8.159036532427548e-01, -4.109293454402794e-01, 9.861951290808639e-01
155, 5.902799963950000e-01, 4.304712642868434e-02, 8.236790371212052e-01, -3.935735778544528e-01, 9.780133371469719e-01
156, 6.057599782940000e-01, 4.218165394407000e-02, 8.315078610258758e-01, -3.760985244958129e-01, 9.698527841806567e-01
157, 6.211299896240000e-01, 4.123473457623808e-02, 8.400263903765470e-01, -3.570839500523504e-01, 9.609631545496031e-01
158, 6.363800168040000e-01, 4.020754333472102e-02, 8.494535654429375e-01, -3.360411485648717e-01, 9.511443675372949e-01
159, 6.514999866490000e-01, 3.910184277404531e-02, 8.596085120729446e-01, -3.133738569800343e-01, 9.405762649916656e-01
160, 6.664699912070000e-01, 3.792082958513381e-02, 8.702555695750589e-01, -2.896081036271007e-01, 9.295349151559353e-01
161, 6.812700033190000e-01, 3.666860402738367e-02, 8.812721625547484e-01, -2.650174942974367e-01, 9.181455789057192e-01
162, 6.958900094030001e-01, 3.534925235958131e-02, 8.926290614930893e-01, -2.396672734529257e-01, 9.064467990843901e-01
163, 7.103199958800001e-01, 3.396756512495448e-02, 9.043163309307765e-01, -2.135796184580883e-01, 8.944497741290490e-01
164, 7.245299816130000e-01, 3.253111245525063e-02, 9.162725406354113e-01, -1.868916503673855e-01, 8.822113835561081e-01
165, 7.385200262070000e-01, 3.104530253388941e-02, 9.284657775418445e-01, -1.596746037012401e-01, 8.697673739728562e-01
166, 7.522799968720000e-01, 2.951716611825864e-02, 9.408294530684888e-01, -1.320771136864090e-01, 8.571729141957711e-01
167, 7.657799720760000e-01, 2.795671328383811e-02, 9.533294750928862e-01, -1.041752788105218e-01, 8.444889844255276e-01
168, 7.790099978450000e-01, 2.637245452656805e-02, 9.658884332645219e-01, -7.614189003454934e-02, 8.317211023222072e-01
169, 7.919700145720000e-01, 2.477217807024700e-02, 9.784751482477418e-01, -4.804654408986195e-02, 8.189730029530568e-01
170, 8.046399950980000e-01, 2.316654731166504e-02, 9.909814329292069e-01, -2.013073006873453e-02, 8.063216965968125e-01
171, 8.170099854470000e-01, 2.156533484992317e-02, 1.003300173758339e+00, 7.366459282005998e-03, 7.938441511391555e-01
172, 8.290500044819999e-01, 1.998101855300517e-02, 1.015322421729381e+00, 3.420183421736738e-02, 7.816874411447429e-01
173, 8.407700061800000e-01, 1.842049471638124e-02, 1.026931857287616e+00, 6.011575287414345e-02, 7.699538249566761e-01
174, 8.521599769590000e-01, 1.689230536859544e-02, 1.038058328940611e+00, 8.495162709957740e-02, 7.587099993000679e-01
175, 8.631799817090000e-01, 1.540740884573768e-02, 1.048670157785181e+00, 1.086387450562084e-01, 7.479835490978559e-01
176, 8.738499879840000e-01, 1.396640008651178e-02, 1.058837167853146e+00, 1.313329639579154e-01, 7.376802870870792e-01
177, 8.841500282290000e-01, 1.257266142565835e-02, 1.068807078681563e+00, 1.535872291999177e-01, 7.275562056953695e-01
178, 8.940600156780000e-01, 1.122758596063359e-02, 1.078963510132356e+00, 1.762578351168671e-01, 7.171691623738251e-01
179, 9.035800099370001e-01, 9.929655596740805e-03, 1.089848933921765e+00, 2.005556560753677e-01, 7.059847875820926e-01
180, 9.126999974250000e-01, 8.681684050960328e-03, 1.101904586235221e+00, 2.274655942750460e-01, 6.935003588422212e-01
181, 9.214000105860000e-01, 7.494582953286484e-03, 1.115255414081022e+00, 2.572665492879946e-01, 6.796227349322981e-01
182, 9.296900033950000e-01, 6.384646476853988e-03, 1.129355347124097e+00, 2.887396141162882e-01, 6.649223860359607e-01
31, 7.657799720760000e-01, -3.588932065749215e-02, 9.139934202730815e-01, -1.919789726047288e-01, 8.859428233487974e-01
32, 7.522799968720000e-01, -3.735379911324997e-02, 9.071476806536917e-01, -2.072596413980097e-01, 8.929314552197314e-01
33, 7.385200262070000e-01, -3.879853712832405e-02, 9.002884092223032e-01, -2.225705151287874e-01, 8.999488212299276e-01
34, 7.245299816130000e-01, -4.021769806747567e-02, 8.934824770171725e-01, -2.377623280866684e-01, 9.069259643065496e-01
35, 7.103199958800001e-01, -4.160768314173572e-02, 8.867928027228081e-01, -2.526946367794461e-01, 9.137964528601233e-01
36, 6.958900094030001e-01, -4.296595463465607e-02, 8.802388666485014e-01, -2.673239583738809e-01, 9.205512094544468e-01
37, 6.812700033190000e-01, -4.428732820002841e-02, 8.738306289994666e-01, -2.816280602690477e-01, 9.271621887635741e-01
38, 6.664699912070000e-01, -4.556880584131263e-02, 8.675794177889981e-01, -2.955816567209865e-01, 9.336235390309883e-01
39, 6.514999866490000e-01, -4.680760273144218e-02, 8.615005077645590e-01, -3.091506523112523e-01, 9.399287197129468e-01
40, 6.363800168040000e-01, -4.800038368180196e-02, 8.555992610855283e-01, -3.223230779340886e-01, 9.460524624627240e-01
41, 6.211299896240000e-01, -4.914419766026542e-02, 8.498772708909715e-01, -3.350953774755100e-01, 9.520165488828112e-01
42, 6.057599782940000e-01, -5.023714097566431e-02, 8.443186806914799e-01, -3.475029448850896e-01, 9.578103149180166e-01
43, 5.902799963950000e-01, -5.127751384702850e-02, 8.389316603446202e-01, -3.595275438736157e-01, 9.634510127535926e-01
44, 5.747100114820000e-01, -5.226318518826376e-02, 8.337467978131939e-01, -3.711008977384064e-01, 9.688754551578073e-01
45, 5.590599775310000e-01, -5.319290971025840e-02, 8.288212404658992e-01, -3.820954453886178e-01, 9.740524964743801e-01
46, 5.433599948880000e-01, -5.406448879205304e-02, 8.241520106096216e-01, -3.925178334606660e-01, 9.789587572373377e-01
47, 5.276100039480000e-01, -5.487763014509926e-02, 8.196379474778044e-01, -4.025938672370438e-01, 9.837361726978459e-01
48, 5.118399858470000e-01, -5.563057105474491e-02, 8.150930080575577e-01, -4.127388213000945e-01, 9.885488347522057e-01
49, 4.960500001910000e-01, -5.632314141038867e-02, 8.104963826103009e-01, -4.229991459591498e-01, 9.934516468550204e-01
50, 4.802699983120000e-01, -5.695387402292971e-02, 8.061581475705517e-01, -4.326827063157328e-01, 9.980625799331160e-01
51, 4.645099937920000e-01, -5.752225492509533e-02, 8.025653808475545e-01, -4.407022748938517e-01, 1.001873489695421e+00
52, 4.487800002100000e-01, -5.802770263760609e-02, 7.998709904270872e-01, -4.467165392252518e-01, 1.004691016519870e+00
53, 4.331099987030000e-01, -5.846901796705039e-02, 7.976114498044136e-01, -4.517601566865769e-01, 1.007055098338815e+00
54, 4.174999892710000e-01, -5.884586768779099e-02, 7.947806872826687e-01, -4.580788230297574e-01, 1.010075790650315e+00
55, 4.019699990750000e-01, -5.915725929182625e-02, 7.902809178846222e-01, -4.681229511503969e-01, 1.014995042345971e+00
56, 3.865399956700000e-01, -5.940221496537313e-02, 7.835003097146448e-01, -4.832582372440964e-01, 1.022466070184778e+00
57, 3.712300062180000e-01, -5.957976616071106e-02, 7.748587914261895e-01, -5.025473405665413e-01, 1.032031369617538e+00
58, 3.560400009160000e-01, -5.968905843650728e-02, 7.658588764379847e-01, -5.226364365223557e-01, 1.041953811954197e+00
59, 3.409900069240000e-01, -5.972888618712450e-02, 7.582609674896618e-01, -5.395960547105765e-01, 1.050300464554179e+00
60, 3.261100053790000e-01, -5.969811234734182e-02, 7.530775576690147e-01, -5.511661659173778e-01, 1.055959874587861e+00
61, 3.113999962810000e-01, -5.959555969209695e-02, 7.503472446927024e-01, -5.572606145252178e-01, 1.058881394506973e+00
62, 2.968699932100000e-01, -5.941986628942485e-02, 7.495504073847684e-01, -5.590392692304277e-01, 1.059691926682721e+00
63, 2.825500071050000e-01, -5.916994918761348e-02, 7.500877514594679e-01, -5.578398404922591e-01, 1.059027669493727e+00
64, 2.684499919410000e-01, -5.884455104027875e-02, 7.515543242075700e-01, -5.545662406081028e-01, 1.057375154377070e+00
65, 2.545700073240000e-01, -5.844202969411012e-02, 7.537399652420772e-01, -5.496875775846491e-01, 1.054915832035427e+00
66, 2.409400045870000e-01, -5.796158934686408e-02, 7.565902027897746e-01, -5.433254402013959e-01, 1.051752643524187e+00
67, 2.275699973110000e-01, -5.740201917235798e-02, 7.600287314456249e-01, -5.356501530231588e-01, 1.047931336962301e+00
68, 2.144699990750000e-01, -5.676211617589096e-02, 7.639381538104512e-01, -5.269237638159573e-01, 1.043622359753892e+00
69, 2.016600072380000e-01, -5.604130436639376e-02, 7.681856970470051e-01, -5.174426405200778e-01, 1.038940224710310e+00
70, 1.891400069000000e-01, -5.523800991973952e-02, 7.727755628822431e-01, -5.071974042807073e-01, 1.033912267969999e+00
71, 1.769299954180000e-01, -5.435194232770797e-02, 7.779199781924488e-01, -4.957143343918552e-01, 1.028275668189530e+00
72, 1.650400012730000e-01, -5.338239536691403e-02, 7.839287579649902e-01, -4.823018795424326e-01, 1.021722430168892e+00
73, 1.534900069240000e-01, -5.232974402750316e-02, 7.909161334192900e-01, -4.667050593319420e-01, 1.014109093008369e+00
74, 1.422899961470000e-01, -5.119385728373295e-02, 7.987843813112732e-01, -4.491420060016224e-01, 1.005595568780970e+00
75, 1.314399987460000e-01, -4.997362298454860e-02, 8.073741811696223e-01, -4.299683456035216e-01, 9.962985909254949e-01
76, 1.209499984980000e-01, -4.866895304455045e-02, 8.167368098349571e-01, -4.090696209041136e-01, 9.862560801120150e-01
77, 1.108499988910000e-01, -4.728281875216707e-02, 8.271076244120942e-01, -3.859204812230041e-01, 9.752263463199913e-01
78, 1.011300012470000e-01, -4.581319521351575e-02, 8.386075343309679e-01, -3.602510394398038e-01, 9.630027520662721e-01
79, 9.181000292300000e-02, -4.426237369278728e-02, 8.513022393441894e-01, -3.319146443210059e-01, 9.495265602271686e-01
80, 8.290000259900000e-02, -4.263164080599387e-02, 8.653236607657463e-01, -3.006168286478877e-01, 9.347564007953445e-01
81, 7.440000027400000e-02, -4.092051220269954e-02, 8.807867023337436e-01, -2.661011108621795e-01, 9.185357811163254e-01
82, 6.633000075800000e-02, -3.913269455166472e-02, 8.979001401608269e-01, -2.279014728552972e-01, 9.006961024338793e-01
83, 5.869000032500000e-02, -3.726803764422722e-02, 9.168591278387511e-01, -1.855823039313591e-01, 8.810191111598906e-01
84, 5.149000138000000e-02, -3.532870776081917e-02, 9.379555268049958e-01, -1.384921276674200e-01, 8.592012331212447e-01
113, 4.473999887700000e-02, 2.387702490370738e-02, 6.828139946420567e-01, -7.080044762454091e-01, 1.130416112827641e+00
114, 5.149000138000000e-02, 2.520981671458515e-02, 6.811784267480901e-01, -7.116552974372988e-01, 1.132635304425237e+00
115, 5.869000032500000e-02, 2.650423524807607e-02, 6.806643735512805e-01, -7.128027376087489e-01, 1.133522485539119e+00
116, 6.633000075800000e-02, 2.776090319321379e-02, 6.811506184341645e-01, -7.117173695665971e-01, 1.133137713137712e+00
117, 7.440000027400000e-02, 2.898041209738457e-02, 6.823461625858638e-01, -7.090487442279827e-01, 1.131844225357001e+00
118, 8.290000259900000e-02, 3.016462637075085e-02, 6.838221609577708e-01, -7.057541050049758e-01, 1.130243793739138e+00
119, 9.181000292300000e-02, 3.131244577926215e-02, 6.851627700923628e-01, -7.027616739009759e-01, 1.128810309813070e+00
120, 1.011300012470000e-01, 3.242539331099750e-02, 6.863582436446373e-01, -7.000932061503633e-01, 1.127582340100235e+00
121, 1.108499988910000e-01, 3.350349337425729e-02, 6.878164003373666e-01, -6.968383921040925e-01, 1.126091191260362e+00
122, 1.209499984980000e-01, 3.454571273561250e-02, 6.899176918867823e-01, -6.921480091812895e-01, 1.123825061310590e+00
123, 1.314399987460000e-01, 3.555400151254221e-02, 6.925343780532324e-01, -6.863071918454635e-01, 1.120862451173569e+00
124, 1.422899961470000e-01, 3.652623796263993e-02, 6.951428443378597e-01, -6.804847224601347e-01, 1.117895798766904e+00
125, 1.534900069240000e-01, 3.746232673614382e-02, 6.974202761895215e-01, -6.754011692198181e-01, 1.115323890100679e+00
126, 1.650400012730000e-01, 3.836280772156399e-02, 6.994536596345425e-01, -6.708623668871818e-01, 1.113069272155556e+00
127, 1.769299954180000e-01, 3.922720353589072e-02, 7.014355812394634e-01, -6.664384347333407e-01, 1.110873150749394e+00
128, 1.891400069000000e-01, 4.005428152263620e-02, 7.035017433342705e-01, -6.618264657717177e-01, 1.108596474987706e+00
129, 2.016600072380000e-01, 4.084348669104634e-02, 7.057753510461097e-01, -6.567514485577910e-01, 1.106075095379695e+00
130, 2.144699990750000e-01, 4.159357019202636e-02, 7.083503365122470e-01, -6.510037131423059e-01, 1.103218400374199e+00
131, 2.275699973110000e-01, 4.230435636175066e-02, 7.112409600293089e-01, -6.445514285060069e-01, 1.099995782452261e+00
132, 2.409400045870000e-01, 4.297438781772604e-02, 7.143727489397950e-01, -6.375608282593862e-01, 1.096505111343201e+00
133, 2.545700073240000e-01, 4.360265093666355e-02, 7.176350701601341e-01, -6.302788612497008e-01, 1.092863913762048e+00
134, 2.684499919410000e-01, 4.418796237988463e-02, 7.209510011813558e-01, -6.228772295059023e-01, 1.089174486683794e+00
135, 2.825500071050000e-01, 4.472823605686878e-02, 7.242627545712879e-01, -6.154849228319468e-01, 1.085505661568560e+00
136, 2.968699932100000e-01, 4.522247958417815e-02, 7.276288940853731e-01, -6.079712185594350e-01, 1.081821037277522e+00
137, 3.113999962810000e-01, 4.566907312512047e-02, 7.314215245359502e-01, -5.995055255893968e-01, 1.077716636610615e+00
138, 3.261100053790000e-01, 4.606569967426110e-02, 7.365915944826464e-01, -5.879651908869500e-01, 1.072130179002742e+00
139, 3.409900069240000e-01, 4.641057644976916e-02, 7.443769751024434e-01, -5.705871091463317e-01, 1.063605440990031e+00
140, 3.560400009160000e-01, 4.670190482666509e-02, 7.551092597779335e-01, -5.466311165671127e-01, 1.051725607554643e+00
141, 3.712300062180000e-01, 4.693713916627512e-02, 7.667453006517110e-01, -5.206578110452880e-01, 1.038714472984664e+00
142, 3.865399956700000e-01, 4.711396492020066e-02, 7.756016707640520e-01, -5.008891277588127e-01, 1.028756712362571e+00
143, 4.019699990750000e-01, 4.723017882733609e-02, 7.792777311139518e-01, -4.926836359063576e-01, 1.024570090121998e+00
144, 4.174999892710000e-01, 4.728324346514164e-02, 7.779445330359998e-01, -4.956595244732149e-01, 1.025967134181336e+00
145, 4.331099987030000e-01, 4.727066573340902e-02, 7.735004436629868e-01, -5.055793668236903e-01, 1.030910716743725e+00
146, 4.487800002100000e-01, 4.719003154042109e-02, 7.682569359727331e-01, -5.172836250608636e-01, 1.036854882359147e+00
147, 4.645099937920000e-01, 4.703880925365590e-02, 7.642414232878032e-01, -5.262468230182964e-01, 1.041553472936460e+00
148, 4.802699983120000e-01, 4.681475678418245e-02, 7.631263188750520e-01, -5.287358953681875e-01, 1.043036584789725e+00
85, 4.473999887700000e-02, -3.331736144847794e-02, 9.616176107547992e-01, -8.567497599375171e-02, 8.347746979875925e-01
86, 3.844000026600000e-02, -3.123381168365107e-02, 9.882247548413752e-01, -2.628402937193041e-02, 8.073028240218504e-01
87, 3.260000050100000e-02, -2.908100726989529e-02, 1.018306953283627e+00, 4.086373500809567e-02, 7.762892700779365e-01
88, 2.723000012300000e-02, -2.686271362433880e-02, 1.052620027837060e+00, 1.174554192791515e-01, 7.408970142716341e-01
89, 2.232000045500000e-02, -2.457398025610243e-02, 1.091756811653528e+00, 2.048143117266258e-01, 7.002524137697055e-01
90, 1.789999939500000e-02, -2.222877629488625e-02, 1.136552934148150e+00, 3.048056565806909e-01, 6.533086667950345e-01
91, 1.394999958600000e-02, -1.981632149587374e-02, 1.187827201871338e+00, 4.192571470342358e-01, 5.986440540979467e-01
92, 1.049000024800000e-02, -1.734775290427398e-02, 1.245662432757670e+00, 5.483536445483700e-01, 5.346328708695476e-01
93, 7.519999985000000e-03, -1.482382587311948e-02, 1.309490051101583e+00, 6.908260069231764e-01, 4.596635650598945e-01
94, 5.040000193000000e-03, -1.224447359761888e-02, 1.376944109629247e+00, 8.413931018509982e-01, 3.714684956908248e-01
95, 3.049999941000000e-03, -9.607776121770021e-03, 1.443080106138386e+00, 9.890180940588983e-01, 2.687499258903240e-01
96, 1.560000004000000e-03, -6.928197692824187e-03, 1.495068899276614e+00, 1.105064507313871e+00, 1.528582669644777e-01
97, 5.600000150000000e-04, -4.183620060385374e-03, 1.523662247227521e+00, 1.168888944704288e+00, 2.357998222008596e-02
98, 5.999999800000000e-05, -1.378923704945363e-03, 1.507262424954299e+00, 1.132282198558703e+00, 1.112597508524178e-01
99, 0.000000000000000e+00, 0.000000000000000e+00, 1.462061982526123e+00, 1.031388353852952e+00, 2.153267919555872e-01
100, 5.999999800000000e-05, 1.261441856133750e-03, 1.420292637658960e+00, 9.381532090601791e-01, 3.145470023459603e-01
101, 5.600000150000000e-04, 3.615993485476345e-03, 1.320280892233268e+00, 7.149127058778295e-01, 4.626796646478387e-01
102, 1.560000004000000e-03, 5.773149622506205e-03, 1.148727348396560e+00, 3.319806883851788e-01, 6.276586818986561e-01
103, 3.049999941000000e-03, 7.785458366952640e-03, 1.011822247594081e+00, 2.638894552250177e-02, 7.618162416526817e-01
104, 5.040000193000000e-03, 9.698081709534147e-03, 9.070623942205079e-01, -2.074500129006519e-01, 8.680715030929733e-01
105, 7.519999985000000e-03, 1.151877117735962e-02, 8.311963533484396e-01, -3.767938541329474e-01, 9.499155910526815e-01
106, 1.049000024800000e-02, 1.326237042362792e-02, 7.796857309449359e-01, -4.917729219979110e-01, 1.009298820669936e+00
107, 1.394999958600000e-02, 1.493919996493819e-02, 7.457669662135213e-01, -5.674844504162471e-01, 1.050523027118330e+00
108, 1.789999939500000e-02, 1.655695383268106e-02, 7.229891977726181e-01, -6.183276835432633e-01, 1.078940886402840e+00
109, 2.232000045500000e-02, 1.811502053350760e-02, 7.075452108369044e-01, -6.528008686676242e-01, 1.098515997247736e+00
110, 2.723000012300000e-02, 1.962630506258377e-02, 6.970688482431515e-01, -6.761856066001083e-01, 1.111986562057233e+00
111, 3.260000050100000e-02, 2.108646478456948e-02, 6.900347999763832e-01, -6.918866071955733e-01, 1.120975700984123e+00
112, 3.844000026600000e-02, 2.250298131725680e-02, 6.856037135681230e-01, -7.017774250711540e-01, 1.126730410164460e+00
199, 1.000000000000000e+00, 0.000000000000000e+00, 1.279116558943912e+00, 6.230280333569473e-01, 4.554894042358605e-01
0, 9.997500181200000e-01, -3.633236397249770e-05, 1.290329258380432e+00, 6.480563803134634e-01, 4.937793679573540e-01
1, 9.990000128750000e-01, -1.454682963996789e-04, 1.263863886984415e+00, 5.889818905902126e-01, 5.214571985279406e-01
2, 9.977599978450000e-01, -3.274631479222957e-04, 1.247845418667027e+00, 5.532263809531851e-01, 5.403826079119799e-01
3, 9.960200190539999e-01, -5.896882442359748e-04, 1.237770805133518e+00, 5.307384043158891e-01, 5.524603290482218e-01
4, 9.937800168990000e-01, -9.462311305383907e-04, 1.230696409971032e+00, 5.149473436853399e-01, 5.605558007090109e-01
5, 9.910500049590000e-01, -1.419707358671310e-03, 1.223803959277102e+00, 4.995624091006735e-01, 5.684575030417219e-01
6, 9.878399968150000e-01, -2.040081037558414e-03, 1.213649185253518e+00, 4.768955027980309e-01, 5.791941768980141e-01
7, 9.841300249100000e-01, -2.842997471555890e-03, 1.197758467932662e+00, 4.414251516354054e-01, 5.957523258216825e-01
183, 9.375399947170000e-01, 5.382394990346412e-03, 1.142937456104480e+00, 3.190568216617853e-01, 6.507998429578951e-01
184, 9.449599981310000e-01, 4.516403323156760e-03, 1.154170257907811e+00, 3.441300399727935e-01, 6.392539530075879e-01
185, 9.519400000570000e-01, 3.811157088650115e-03, 1.161112756585869e+00, 3.596266888077423e-01, 6.323698197823531e-01
186, 9.584699869160000e-01, 3.272716092410135e-03, 1.162227958594069e+00, 3.621159790046176e-01, 6.316900015664373e-01
187, 9.645400047300000e-01, 2.881381460409278e-03, 1.157073434454403e+00, 3.506103447642932e-01, 6.375011803944040e-01
