"Global_Index", "x_coord", "y_coord", "Pressure", "Pressure_Coefficient", "Mach_Number"
149, 4.960500001910000e-01, 4.664912952020928e-02, 7.823356072375732e-01, -4.858580195589883e-01, 1.022180714120863e+00
150, 5.118399858470000e-01, 4.624967270846062e-02, 7.886676745387144e-01, -4.717239407617981e-01, 1.015367188289773e+00
151, 5.276100039480000e-01, 4.577082013308536e-02, 7.948816954276517e-01, -4.578533584204202e-01, 1.008741116366063e+00
152, 5.433599948880000e-01, 4.521088303071743e-02, 8.013746481301888e-01, -4.433601604236858e-01, 1.001854531163474e+00
153, 5.590599775310000e-01, 4.456949755162022e-02, 8.086144507249471e-01, -4.271998867746717e-01, 9.942005406612728e-01
154, 5.747100114820000e-01, 4.384554247504317e-02, 8.166992761731828e-01, -4.091534013991455e-01, 9.856546378994472e-01
155, 5.902799963950000e-01, 4.303966023679164e-02, 8.253316569828764e-01, -3.898846942346510e-01, 9.765395657625489e-01
156, 6.057599782940000e-01, 4.215212210852706e-02, 8.342057969855270e-01, -3.700763460144487e-01, 9.672224326518878e-01
157, 6.211299896240000e-01, 4.118430730476474e-02, 8.433351417660115e-01, -3.496983442722957e-01, 9.576550233895003e-01
158, 6.363800168040000e-01, 4.013761028871340e-02, 8.529339751640261e-01, -3.282723768660131e-01, 9.476451959082035e-01
159, 6.514999866490000e-01, 3.901397906060602e-02, 8.630788497805042e-01, -3.056275674542317e-01, 9.370948949369973e-01
160, 6.664699912070000e-01, 3.781676850331649e-02, 8.737007197285495e-01, -2.819180363202021e-01, 9.260939204854164e-01
161, 6.812700033190000e-01, 3.655019303587286e-02, 8.846901433442727e-01, -2.573880728922486e-01, 9.147456915660583e-01
162, 6.958900094030001e-01, 3.521839939831972e-02, 8.959799378889013e-01, -2.321876386408454e-01, 9.031289211493415e-01
163, 7.103199958800001e-01, 3.382619794592733e-02, 9.075563862031761e-01, -2.063473522250533e-01, 8.912551070620146e-01
164, 7.245299816130000e-01, 3.238115076421736e-02, 9.193818179094342e-01, -1.799512993092987e-01, 8.791605202199895e-01
165, 7.385200262070000e-01, 3.088860024461442e-02, 9.314389140625683e-01, -1.530381382531958e-01, 8.668633934797793e-01
166, 7.522799968720000e-01, 2.935548900866422e-02, 9.436638975267394e-01, -1.257502287349567e-01, 8.544174818544993e-01
167, 7.657799720760000e-01, 2.779171858823886e-02, 9.560217546743111e-01, -9.816572617341283e-02, 8.418834323385632e-01
168, 7.790099978450000e-01, 2.620566411282619e-02, 9.684369089785587e-01, -7.045332817286000e-02, 8.292655962245986e-01
169, 7.919700145720000e-01, 2.460497110685533e-02, 9.808817402786677e-01, -4.267468687797388e-02, 8.166646208695861e-01
170, 8.046399950980000e-01, 2.300016280467748e-02, 9.932508730588719e-01, -1.506501549358942e-02, 8.041539530034464e-01
171, 8.170099854470000e-01, 2.140087831720307e-02, 1.005439539132626e+00, 1.214182842103934e-02, 7.918089960957454e-01
172, 8.290500044819999e-01, 1.981946976936849e-02, 1.017339666814334e+00, 3.870461342485310e-02, 7.797764573821576e-01
173, 8.407700061800000e-01, 1.826272940493509e-02, 1.028834142162059e+00, 6.436192446888228e-02, 7.681582851415388e-01
174, 8.521599769590000e-01, 1.673910039545474e-02, 1.039851671670270e+00, 8.895462426399636e-02, 7.570242145921080e-01
175, 8.631799817090000e-01, 1.525942207781140e-02, 1.050358812795078e+00, 1.124080642747283e-01, 7.464026584764106e-01
176, 8.738499879840000e-01, 1.382417661439036e-02, 1.060425581082004e+00, 1.348785292009008e-01, 7.361999949557599e-01
177, 8.841500282290000e-01, 1.243658513974504e-02, 1.070301590942299e+00, 1.569231940676323e-01, 7.261693695258858e-01
178, 8.940600156780000e-01, 1.109785117581153e-02, 1.080376352369060e+00, 1.794115008237950e-01, 7.158628043136096e-01
179, 9.035800099370001e-01, 9.806285688119436e-03, 1.091200521435798e+00, 2.035725924906211e-01, 7.047367634122393e-01
180, 9.126999974250000e-01, 8.564594338074258e-03, 1.103223537315446e+00, 2.304096815076919e-01, 6.922798568419645e-01
181, 9.214000105860000e-01, 7.383722531850167e-03, 1.116573135823977e+00, 2.602078924642339e-01, 6.783965980472454e-01
182, 9.296900033950000e-01, 6.280231413794241e-03, 1.130694535056978e+00, 2.917288728950395e-01, 6.636667259982725e-01
31, 7.657799720760000e-01, -3.607103318002436e-02, 9.121456770758520e-01, -1.961033993842589e-01, 8.878258922974306e-01
32, 7.522799968720000e-01, -3.753655103979494e-02, 9.052547320115596e-01, -2.114849731884831e-01, 8.948642715322245e-01
33, 7.385200262070000e-01, -3.898168472632906e-02, 8.983492692868716e-01, -2.268989524846615e-01, 9.019326624847830e-01
34, 7.245299816130000e-01, -4.040056281967901e-02, 8.914994883923399e-01, -2.421886419813841e-01, 9.089586935518488e-01
35, 7.103199958800001e-01, -4.178955731758146e-02, 8.847713149028583e-01, -2.572068863775484e-01, 9.158730933373558e-01
36, 6.958900094030001e-01, -4.314610620258676e-02, 8.781853331001898e-01, -2.719077386156479e-01, 9.226650659810888e-01
37, 6.812700033190000e-01, -4.446501322657009e-02, 8.717532581609023e-01, -2.862650487479859e-01, 9.293053750383854e-01
38, 6.664699912070000e-01, -4.574327786194010e-02, 8.654874719834932e-01, -3.002511786082742e-01, 9.357862955022146e-01
39, 6.514999866490000e-01, -4.697812426060340e-02, 8.594051360611323e-01, -3.138278212921153e-01, 9.420998300164448e-01
40, 6.363800168040000e-01, -4.816624190232600e-02, 8.535125343353620e-01, -3.269809501442812e-01, 9.482190712839270e-01
41, 6.211299896240000e-01, -4.930471890568933e-02, 8.478132938843732e-01, -3.397024690080955e-01, 9.541640889243977e-01
42, 6.057599782940000e-01, -5.039170107413252e-02, 8.422933787511732e-01, -3.520237081447028e-01, 9.599215796864276e-01
43, 5.902799963950000e-01, -5.142555058325355e-02, 8.369635928542830e-01, -3.639205516645468e-01, 9.655064762799365e-01
44, 5.747100114820000e-01, -5.240421487153456e-02, 8.318545206982266e-01, -3.753247305843156e-01, 9.708547856473422e-01
45, 5.590599775310000e-01, -5.332653431812371e-02, 8.270218384828996e-01, -3.861119676720992e-01, 9.759374535778891e-01
46, 5.433599948880000e-01, -5.419041573304652e-02, 8.224601156255390e-01, -3.962943847644219e-01, 9.807327870220299e-01
47, 5.276100039480000e-01, -5.499566610220157e-02, 8.180696572153804e-01, -4.060945151442402e-01, 9.853817238362766e-01
48, 5.118399858470000e-01, -5.574064326348269e-02, 8.136678853240737e-01, -4.159198988301925e-01, 9.900440338543086e-01
49, 4.960500001910000e-01, -5.642528712548504e-02, 8.092294454236527e-01, -4.258271307507752e-01, 9.947807999278798e-01
50, 4.802699983120000e-01, -5.704825783732601e-02, 8.050402760969110e-01, -4.351779551408237e-01, 9.992361739655083e-01
51, 4.645099937920000e-01, -5.760915878144093e-02, 8.015590204853950e-01, -4.429486149879577e-01, 1.002933455740308e+00
52, 4.487800002100000e-01, -5.810752408964196e-02, 7.989425038321960e-01, -4.487890539459911e-01, 1.005674178861121e+00
53, 4.331099987030000e-01, -5.854227469090857e-02, 7.967886924578783e-01, -4.535966686208073e-01, 1.007928599986992e+00
54, 4.174999892710000e-01, -5.891317821649113e-02, 7.942037727508717e-01, -4.593665786810899e-01, 1.010680349540644e+00
55, 4.019699990750000e-01, -5.921934364710977e-02, 7.901836198087155e-01, -4.683401343555457e-01, 1.015067506807021e+00
56, 3.865399956700000e-01, -5.945988392997131e-02, 7.840869607040616e-01, -4.819487484284340e-01, 1.021778274622760e+00
57, 3.712300062180000e-01, -5.963390875348029e-02, 7.761273475248605e-01, -4.997157421320079e-01, 1.030588008095364e+00
58, 3.560400009160000e-01, -5.974062501554035e-02, 7.675067481189036e-01, -5.189581515203044e-01, 1.040099846947331e+00
59, 3.409900069240000e-01, -5.977887979418815e-02, 7.598686837359649e-01, -5.360074023750783e-01, 1.048499882100780e+00
60, 3.261100053790000e-01, -5.974757263741583e-02, 7.543444785951994e-01, -5.483382174214300e-01, 1.054545714621865e+00
61, 3.113999962810000e-01, -5.964554526325701e-02, 7.511651323802787e-01, -5.554349723654494e-01, 1.057971436761824e+00
62, 2.968699932100000e-01, -5.947144156152267e-02, 7.499461704169570e-01, -5.581558696050067e-01, 1.059251446422573e+00
63, 2.825500071050000e-01, -5.922416527443565e-02, 7.501328945179448e-01, -5.577390747367302e-01, 1.058973664806217e+00
64, 2.684499919410000e-01, -5.890243094310175e-02, 7.513099744397087e-01, -5.551116641970788e-01, 1.057639094736626e+00
65, 2.545700073240000e-01, -5.850455741021854e-02, 7.532403716198524e-01, -5.508027419199725e-01, 1.055459470342625e+00
66, 2.409400045870000e-01, -5.802968520572685e-02, 7.558469689194013e-01, -5.449844443763364e-01, 1.052563714840157e+00
67, 2.275699973110000e-01, -5.747653051221183e-02, 7.590390483094074e-01, -5.378592671665013e-01, 1.049012278314464e+00
68, 2.144699990750000e-01, -5.684380417843491e-02, 7.626929281607753e-01, -5.297032853554123e-01, 1.044982763966557e+00
69, 2.016600072380000e-01, -5.613082513908617e-02, 7.666771850279207e-01, -5.208098548483913e-01, 1.040586530841323e+00
70, 1.891400069000000e-01, -5.533591443577455e-02, 7.710072580133766e-01, -5.111445133629988e-01, 1.035838786747082e+00
71, 1.769299954180000e-01, -5.445865282233837e-02, 7.759106209123712e-01, -5.001995068920286e-01, 1.030458861532442e+00
72, 1.650400012730000e-01, -5.349820135644344e-02, 7.817046571027041e-01, -4.872663903957498e-01, 1.024130989729346e+00
73, 1.534900069240000e-01, -5.245478538697027e-02, 7.884952859590741e-01, -4.721087366984952e-01, 1.016720397071712e+00
74, 1.422899961470000e-01, -5.132812399447980e-02, 7.961728385614202e-01, -4.549713424968300e-01, 1.008401130305187e+00
75, 1.314399987460000e-01, -5.011695741977146e-02, 8.045757525762963e-01, -4.362148379993386e-01, 9.992919871446295e-01
76, 1.209499984980000e-01, -4.882103654793440e-02, 8.137642746624452e-01, -4.157047440570421e-01, 9.894215789770471e-01
77, 1.108499988910000e-01, -4.744315109574791e-02, 8.239827454795832e-01, -3.928956574116447e-01, 9.785389378793813e-01
78, 1.011300012470000e-01, -4.598112521277013e-02, 8.353540638898477e-01, -3.675132502458757e-01, 9.664328749214846e-01
79, 9.181000292300000e-02, -4.443707380111420e-02, 8.479443988289499e-01, -3.394098240425226e-01, 9.530470767394786e-01
80, 8.290000259900000e-02, -4.281211649022647e-02, 8.618874169634358e-01, -3.082870157066164e-01, 9.383390499334422e-01
81, 7.440000027400000e-02, -4.110560986879269e-02, 8.773011187656449e-01, -2.738814313266856e-01, 9.221487992250506e-01
82, 6.633000075800000e-02, -3.932109438477670e-02, 8.943989233821661e-01, -2.357166888790936e-01, 9.043050503848070e-01
83, 5.869000032500000e-02, -3.745827011198401e-02, 9.133804539062952e-01, -1.933472011020197e-01, 8.845847413824174e-01
84, 5.149000138000000e-02, -3.551915691662012e-02, 9.345442096804681e-01, -1.461066748203836e-01, 8.626788734909366e-01
113, 4.473999887700000e-02, 2.392091628072809e-02, 6.845574043119028e-01, -7.041129368037884e-01, 1.128372516619886e+00
114, 5.149000138000000e-02, 2.525690232083892e-02, 6.832962234522764e-01, -7.069280726511689e-01, 1.130149248397822e+00
115, 5.869000032500000e-02, 2.655541518993783e-02, 6.831688889888610e-01, -7.072123013641497e-01, 1.130581158097135e+00
116, 6.633000075800000e-02, 2.781718268169449e-02, 6.840405988077364e-01, -7.052665205184456e-01, 1.129745668376805e+00
117, 7.440000027400000e-02, 2.904286928875618e-02, 6.856057508748749e-01, -7.017728775114401e-01, 1.128024005958003e+00
118, 8.290000259900000e-02, 3.023438850773501e-02, 6.874255358153333e-01, -6.977108575550597e-01, 1.126028753547519e+00
119, 9.181000292300000e-02, 3.139063977704267e-02, 6.890913352665329e-01, -6.939925552086320e-01, 1.124224130602448e+00
120, 1.011300012470000e-01, 3.251313092061665e-02, 6.906146642210622e-01, -6.905922673637004e-01, 1.122623418207634e+00
121, 1.108499988910000e-01, 3.360183078912699e-02, 6.924043782785790e-01, -6.865973699138861e-01, 1.120753904383076e+00
122, 1.209499984980000e-01, 3.465560790815698e-02, 6.948125757647964e-01, -6.812219290964366e-01, 1.118139917852004e+00
123, 1.314399987460000e-01, 3.567631947703013e-02, 6.976751954685733e-01, -6.748321529719347e-01, 1.114905436811510e+00
124, 1.422899961470000e-01, 3.666167720034159e-02, 7.004582403719015e-01, -6.686199991698627e-01, 1.111750857310032e+00
125, 1.534900069240000e-01, 3.761141766827757e-02, 7.028620270621446e-01, -6.632544038791415e-01, 1.109048138683671e+00
126, 1.650400012730000e-01, 3.852590358841578e-02, 7.049941390953692e-01, -6.584952252335509e-01, 1.106694518938375e+00
127, 1.769299954180000e-01, 3.940444948790452e-02, 7.070539889998029e-01, -6.538973459825829e-01, 1.104422753688059e+00
128, 1.891400069000000e-01, 4.024558773503061e-02, 7.091674106813285e-01, -6.491798868720347e-01, 1.102103290481317e+00
129, 2.016600072380000e-01, 4.104852945684064e-02, 7.114326687295629e-01, -6.441235073000828e-01, 1.099600189724232e+00
130, 2.144699990750000e-01, 4.181177486641365e-02, 7.139141213799496e-01, -6.385845504911840e-01, 1.096859371133290e+00
131, 2.275699973110000e-01, 4.253491574627391e-02, 7.165982848863583e-01, -6.325931140929502e-01, 1.093878964063556e+00
132, 2.409400045870000e-01, 4.321624386159392e-02, 7.193868335640393e-01, -6.263686750802694e-01, 1.090788459351050e+00
133, 2.545700073240000e-01, 4.385451130502839e-02, 7.221567771418661e-01, -6.201857653083346e-01, 1.087712909276002e+00
134, 2.684499919410000e-01, 4.444831058911265e-02, 7.248457538845674e-01, -6.141835850790907e-01, 1.084741484172964e+00
135, 2.825500071050000e-01, 4.499533763114997e-02, 7.274255203063521e-01, -6.084251778876070e-01, 1.081891968538121e+00
136, 2.968699932100000e-01, 4.549441999072861e-02, 7.298789087169110e-01, -6.029488644711809e-01, 1.079194624019281e+00
137, 3.113999962810000e-01, 4.594377383203780e-02, 7.321582201601287e-01, -5.978611157139986e-01, 1.076696715436167e+00
138, 3.261100053790000e-01, 4.634094533307396e-02, 7.342712982433330e-01, -5.931444235639888e-01, 1.074397966545337e+00
139, 3.409900069240000e-01, 4.668405328191064e-02, 7.363670633037578e-01, -5.884663765541122e-01, 1.072129024518108e+00
140, 3.560400009160000e-01, 4.697122991059113e-02, 7.387131277799294e-01, -5.832296254912291e-01, 1.069607932010663e+00
141, 3.712300062180000e-01, 4.719990454492308e-02, 7.415245797682680e-01, -5.769540630172589e-01, 1.066558873244176e+00
142, 3.865399956700000e-01, 4.736778009590765e-02, 7.448635604476117e-01, -5.695009811437239e-01, 1.062922897861251e+00
143, 4.019699990750000e-01, 4.747269808997008e-02, 7.486837690341195e-01, -5.609737298345547e-01, 1.058753338791568e+00
144, 4.174999892710000e-01, 4.751221680023748e-02, 7.529885518074924e-01, -5.513648397154188e-01, 1.054056783823945e+00
145, 4.331099987030000e-01, 4.748398143077737e-02, 7.578582014746826e-01, -5.404950859940120e-01, 1.048753567626557e+00
146, 4.487800002100000e-01, 4.738575668352741e-02, 7.633424036866135e-01, -5.282535631995233e-01, 1.042779262398778e+00
147, 4.645099937920000e-01, 4.721520127831528e-02, 7.693974062677575e-01, -5.147379324380412e-01, 1.036210137410950e+00
148, 4.802699983120000e-01, 4.697033036521208e-02, 7.758233589365715e-01, -5.003942880880100e-01, 1.029222787910288e+00
85, 4.473999887700000e-02, -3.350627800683638e-02, 9.583267654801014e-01, -9.302061276763074e-02, 8.381135700579103e-01
86, 3.844000026600000e-02, -3.141932375450746e-02, 9.851144262258943e-01, -3.322672717434310e-02, 8.104465151647627e-01
87, 3.260000050100000e-02, -2.926113937053728e-02, 1.015444456783942e+00, 3.447423389272673e-02, 7.791768691977877e-01
88, 2.723000012300000e-02, -2.703541445462820e-02, 1.050081057007902e+00, 1.117880736783522e-01, 7.434625550138330e-01
89, 2.232000045500000e-02, -2.473711518940432e-02, 1.089619308535380e+00, 2.000430994093304e-01, 7.024292731939610e-01
90, 1.789999939500000e-02, -2.238024043063122e-02, 1.134890887219844e+00, 3.010957304014380e-01, 6.550348578647018e-01
91, 1.394999958600000e-02, -1.995396848978932e-02, 1.186695589968548e+00, 4.167312276083657e-01, 5.998704326587792e-01
92, 1.049000024800000e-02, -1.746956315429664e-02, 1.245069124758919e+00, 5.470292963368737e-01, 5.353374269719492e-01
93, 7.519999985000000e-03, -1.492793046756771e-02, 1.309377047552394e+00, 6.905737668580224e-01, 4.598662886195702e-01
94, 5.040000193000000e-03, -1.232925042201811e-02, 1.377181644380464e+00, 8.419233133492492e-01, 3.712569638360586e-01
95, 3.049999941000000e-03, -9.671989282210969e-03, 1.443416756795897e+00, 9.897695464194132e-01, 2.683057695302206e-01
96, 1.560000004000000e-03, -6.971381272481277e-03, 1.495269859160240e+00, 1.105513078482679e+00, 1.523982998056511e-01
97, 5.600000150000000e-04, -4.206275773992060e-03, 1.523657926784837e+00, 1.168879300859011e+00, 2.331134444260093e-02
98, 5.999999800000000e-05, -1.384020843396187e-03, 1.507270819915187e+00, 1.132300937310685e+00, 1.112600334666998e-01
99, 0.000000000000000e+00, 0.000000000000000e+00, 1.462209059799669e+00, 1.031716651338547e+00, 2.150598528216635e-01
100, 5.999999800000000e-05, 1.263724473063163e-03, 1.420640525034560e+00, 9.389297433807132e-01, 3.139569831477872e-01
101, 5.600000150000000e-04, 3.624992154432299e-03, 1.321071228261714e+00, 7.166768487984695e-01, 4.617115091130077e-01
102, 1.560000004000000e-03, 5.788749319431665e-03, 1.149908275438565e+00, 3.346166862467959e-01, 6.265041298319630e-01
103, 3.049999941000000e-03, 7.806752590899753e-03, 1.012964694438971e+00, 2.893905008698778e-02, 7.607651066089562e-01
104, 5.040000193000000e-03, 9.724023932340328e-03, 9.079205895349102e-01, -2.055343983595755e-01, 8.672543302735816e-01
105, 7.519999985000000e-03, 1.154831636198114e-02, 8.317381069085946e-01, -3.755845827933156e-01, 9.493468235302285e-01
106, 1.049000024800000e-02, 1.329461545541858e-02, 7.800261768304215e-01, -4.910129981463806e-01, 1.008905083283612e+00
107, 1.394999958600000e-02, 1.497343514594753e-02, 7.460630883896754e-01, -5.668234634159032e-01, 1.050167943130744e+00
108, 1.789999939500000e-02, 1.659269076897948e-02, 7.233627648504194e-01, -6.174938284588853e-01, 1.078499640410554e+00
109, 2.232000045500000e-02, 1.815199947314588e-02, 7.080864385836302e-01, -6.515927710186826e-01, 1.097885238900484e+00
110, 2.723000012300000e-02, 1.966450700785900e-02, 6.978461015072899e-01, -6.744506662783708e-01, 1.111082224772437e+00
111, 3.260000050100000e-02, 2.112608883108152e-02, 6.911000664791430e-01, -6.895087801804843e-01, 1.119733647562255e+00
112, 3.844000026600000e-02, 2.254443942594181e-02, 6.869942457349569e-01, -6.986735586273283e-01, 1.125104364111126e+00
199, 1.000000000000000e+00, 0.000000000000000e+00, 1.279255392694025e+00, 6.233379301205908e-01, 4.554092421960683e-01
0, 9.997500181200000e-01, -3.633242780651899e-05, 1.290548694992116e+00, 6.485461941788311e-01, 4.935186503471020e-01
1, 9.990000128750000e-01, -1.454723274621803e-04, 1.264205836816003e+00, 5.897451714642923e-01, 5.210709658480945e-01
2, 9.977599978450000e-01, -3.275073709799948e-04, 1.248337964346994e+00, 5.543258132745403e-01, 5.398370421712723e-01
3, 9.960200190539999e-01, -5.899271265362853e-04, 1.238435031003023e+00, 5.322210513460325e-01, 5.517335048092014e-01
4, 9.937800168990000e-01, -9.470947437914487e-04, 1.231530287538819e+00, 5.168086775420077e-01, 5.596483350318839e-01
5, 9.910500049590000e-01, -1.422096214786332e-03, 1.224774576356943e+00, 5.017289650824618e-01, 5.674074608026775e-01
6, 9.878399968150000e-01, -2.045517429007780e-03, 1.214690072179031e+00, 4.792189111139090e-01, 5.780724791372750e-01
7, 9.841300249100000e-01, -2.853675334460409e-03, 1.198774678298583e+00, 4.436934783450506e-01, 5.946594353916432e-01
183, 9.375399947170000e-01, 5.285083375206620e-03, 1.144298524291560e+00, 3.220949202936607e-01, 6.495159137444302e-01
184, 9.449599981310000e-01, 4.427420577833680e-03, 1.155522138474644e+00, 3.471476305237592e-01, 6.379789728693139e-01
185, 9.519400000570000e-01, 3.732158359836372e-03, 1.162389164723803e+00, 3.624758141156311e-01, 6.311800416818680e-01
186, 9.584699869160000e-01, 3.205412911359581e-03, 1.163329886793880e+00, 3.645756401649116e-01, 6.306945397752491e-01
187, 9.645400047300000e-01, 2.827008717441922e-03, 1.157880696884254e+00, 3.524122698309238e-01, 6.368257522582202e-01
