"PointID"	"x"	"y"	"Conservative_1"	"Conservative_2"	"Conservative_3"	"Conservative_4"	"Pressure"	"Temperature"	"Pressure_Coefficient"	"Mach"
0	9.997500181200000e-01	-3.633229496381426e-05	1.199495405708623e+00	7.201993969390275e-01	1.010474835940539e-01	3.445586037556131e+00	1.290047705381897e+00	1.075491993751972e+00	6.474279137988774e-01	4.941054775727814e-01	
1	9.990000128750000e-01	-1.454639392426985e-04	1.181093912589358e+00	7.467705979258347e-01	1.067412868328593e-01	3.399532692182637e+00	1.263451556053144e+00	1.069729970314749e+00	5.880615090471966e-01	5.219074662948419e-01	
2	9.977599978450000e-01	-3.274153612402918e-04	1.170462374162890e+00	7.651400623893583e-01	1.128916428220948e-01	3.373731399043318e+00	1.247279305898670e+00	1.065629560959377e+00	5.519627363809603e-01	5.409943538031591e-01	
3	9.960200190539999e-01	-5.894302332961064e-04	1.163785796940809e+00	7.762824697041648e-01	1.196455123333202e-01	3.357623271452473e+00	1.237028162247498e+00	1.062934575674680e+00	5.290807193024512e-01	5.532576639872148e-01	
4	9.937800168990000e-01	-9.452990283626813e-04	1.158979637003959e+00	7.825335562546504e-01	1.297722962520376e-01	3.345896293521277e+00	1.229780317162370e+00	1.061088804235971e+00	5.129024936660040e-01	5.615372033887043e-01	
5	9.910500049590000e-01	-1.417131723176814e-03	1.154327770967093e+00	7.876270524915513e-01	1.439242004168367e-01	3.334559626145811e+00	1.222751317091988e+00	1.059275664889852e+00	4.972127613660445e-01	5.695806848105297e-01	
6	9.878399968150000e-01	-2.034228104748629e-03	1.147352605658928e+00	7.936563062303964e-01	1.617747186488411e-01	3.317238386928199e+00	1.212534453200587e+00	1.056810650204804e+00	4.744072616084533e-01	5.803803843729300e-01	
7	9.841300249100000e-01	-2.831524526247259e-03	1.136481984326401e+00	8.033844088502238e-01	1.814721071483021e-01	3.290167199520323e+00	1.196688193051641e+00	1.052975946434316e+00	4.390361452045555e-01	5.968894183404214e-01	
8	9.799500107769999e-01	-3.820551397388384e-03	1.120521814278282e+00	8.182390563999067e-01	1.999569690208213e-01	3.250343826573531e+00	1.173500470317439e+00	1.047280343286561e+00	3.872778355299967e-01	6.208115104586427e-01	
9	9.752799868580000e-01	-4.998471653121507e-03	1.099580464051185e+00	8.382601345628816e-01	2.134305824969641e-01	3.198044002350705e+00	1.143123392066170e+00	1.039599583148795e+00	3.194718572905582e-01	6.520700466956453e-01	
10	9.701499938960000e-01	-6.319845920677769e-03	1.074892076325619e+00	8.617666196396052e-01	2.188300251903604e-01	3.136276360057631e+00	1.107420746998554e+00	1.030262266686466e+00	2.397784531217718e-01	6.887409905703873e-01	
11	9.645400047300000e-01	-7.728269865540930e-03	1.049036249168279e+00	8.855308657260724e-01	2.146587051349181e-01	3.071360431801520e+00	1.070257311899159e+00	1.020229103377224e+00	1.568243569177665e-01	7.267738885290532e-01	
12	9.584699869160000e-01	-9.150956335700173e-03	1.026245186340781e+00	9.060589278713824e-01	2.019076846516946e-01	3.013980403143110e+00	1.037657732844597e+00	1.011120682129101e+00	8.405743938526079e-02	7.602628880959286e-01	
13	9.519400000570000e-01	-1.053452438681695e-02	1.010282681187619e+00	9.210711848714286e-01	1.842665965270201e-01	2.973776439243084e+00	1.014841382089182e+00	1.004512302335228e+00	3.312808502049494e-02	7.840252649584710e-01	
14	9.449599981310000e-01	-1.185202702302954e-02	1.002166523716422e+00	9.300129635387162e-01	1.662851118533920e-01	2.953360075660086e+00	1.003214980919191e+00	1.001046190606010e+00	7.176296694623837e-03	7.963268422437193e-01	
15	9.375399947170000e-01	-1.310775159584010e-02	1.000103168729987e+00	9.338659672465116e-01	1.514882611561265e-01	2.948158062722898e+00	1.000270823897993e+00	1.000167637873020e+00	6.045176294495033e-04	7.994282307108883e-01	
16	9.296900033950000e-01	-1.432811732589478e-02	1.001073142598247e+00	9.346256975109405e-01	1.414458491066337e-01	2.950552297898793e+00	1.001706066516846e+00	1.000632245429096e+00	3.808184189387934e-03	7.977889381226237e-01	
17	9.214000105860000e-01	-1.555022491429755e-02	1.002359987513344e+00	9.343164161012145e-01	1.359189332890488e-01	2.953716658840515e+00	1.003622197091553e+00	1.001259237792742e+00	8.085261365072875e-03	7.955737630937294e-01	
18	9.126999974250000e-01	-1.680039595752576e-02	1.002287460770458e+00	9.343479058308032e-01	1.335995385464443e-01	2.953440613588907e+00	1.003611905224136e+00	1.001321421753256e+00	8.062288446732917e-03	7.953538812664016e-01	
19	9.035800099370001e-01	-1.809909267693218e-02	1.000277067007209e+00	9.353124108036134e-01	1.329114851931198e-01	2.948257823745992e+00	1.000857617122559e+00	1.000580389308622e+00	1.914323934283349e-03	7.979719955354301e-01	
20	8.940600156780000e-01	-1.944986091311794e-02	9.965371839351473e-01	9.372617337668171e-01	1.326010307802133e-01	2.938701101804502e+00	9.956492000230355e-01	9.991089304780327e-01	-9.711607091438673e-03	8.031568727757216e-01	
21	8.841500282290000e-01	-2.084827037580748e-02	9.916012559870980e-01	9.399037706725348e-01	1.319272207185052e-01	2.926109931330013e+00	9.887532204777987e-01	9.971278419706477e-01	-2.510441857634224e-02	8.101089683546004e-01	
22	8.738499879840000e-01	-2.228640835476653e-02	9.860310570128391e-01	9.428736386663926e-01	1.306103973359609e-01	2.911895049898173e+00	9.809768362044328e-01	9.948741768603945e-01	-4.246241918653400e-02	8.179789551431701e-01	
23	8.631799817090000e-01	-2.375248074878889e-02	9.802809143301603e-01	9.458898547594183e-01	1.286744340877175e-01	2.897206642052053e+00	9.729635566928200e-01	9.925354482267563e-01	-6.034920381066970e-02	8.261039559070865e-01	
24	8.521599769590000e-01	-2.523605267217519e-02	9.746182292532777e-01	9.487686159661775e-01	1.262796537180283e-01	2.882719347154860e+00	9.650944487533820e-01	9.902281937541920e-01	-7.791417688977229e-02	8.340791209273682e-01	
25	8.407700061800000e-01	-2.673406245324316e-02	9.691521102513085e-01	9.514449590182175e-01	1.236180196781232e-01	2.868713764373565e+00	9.575196758052245e-01	9.879973078291421e-01	-9.482215222048113e-02	8.417533928044748e-01	
26	8.290500044819999e-01	-2.823734518568828e-02	9.638766006644137e-01	9.539121762118464e-01	1.208187564053412e-01	2.855174724054994e+00	9.502308904830511e-01	9.858428867637660e-01	-1.110917623146181e-01	8.491313239566858e-01	
27	8.170099854470000e-01	-2.974207248804953e-02	9.587491815551701e-01	9.562102537425267e-01	1.179692247682085e-01	2.842000832955335e+00	9.431616203231455e-01	9.837417736234830e-01	-1.268713832072644e-01	8.562962024060818e-01	
28	8.046399950980000e-01	-3.124742315467090e-02	9.537087508529846e-01	9.583491458370861e-01	1.150959307286125e-01	2.829030828786736e+00	9.362318953461729e-01	9.816748504287286e-01	-1.423395193165783e-01	8.633160310675442e-01	
29	7.919700145720000e-01	-3.274778039789075e-02	9.487249757239211e-01	9.603598620592717e-01	1.121885654915560e-01	2.816191044651278e+00	9.293956277889305e-01	9.796259733541417e-01	-1.575990451139945e-01	8.702475696766357e-01	
30	7.790099978450000e-01	-3.423992756744098e-02	9.437821838137732e-01	9.622769121079880e-01	1.092372674672699e-01	2.803448537437955e+00	9.226238859420404e-01	9.775813760477728e-01	-1.727145403079456e-01	8.771386473871214e-01	
31	7.657799720760000e-01	-3.571931475027717e-02	9.388388217726359e-01	9.640932472148197e-01	1.062231519989952e-01	2.790689291908943e+00	9.158666315130216e-01	9.755312736043020e-01	-1.877976975155768e-01	8.840230094836753e-01	
32	7.522799968720000e-01	-3.718346029659158e-02	9.338609872979126e-01	9.658219440179993e-01	1.031349347632663e-01	2.777826217909003e+00	9.090771076675456e-01	9.734608469917155e-01	-2.029528846706572e-01	8.909507196011965e-01	
33	7.385200262070000e-01	-3.862860269725354e-02	9.288631164532349e-01	9.674628114621513e-01	9.996587491689658e-02	2.764897595735171e+00	9.022740278864497e-01	9.713745888971104e-01	-2.181383306106033e-01	8.979068628541224e-01	
34	7.245299816130000e-01	-4.004895132958737e-02	9.238913852272556e-01	9.690039466936380e-01	9.670214114871997e-02	2.752022365617853e+00	8.955207558875504e-01	9.692922460439151e-01	-2.332125984652892e-01	9.048261416346198e-01	
35	7.103199958800001e-01	-4.144094701592391e-02	9.189892459280731e-01	9.704327963478939e-01	9.335765654209241e-02	2.739312411166586e+00	8.888769586876820e-01	9.672332539539340e-01	-2.480425029292812e-01	9.116451568741020e-01	
36	6.958900094030001e-01	-4.280208567915070e-02	9.141739155234508e-01	9.717650628132456e-01	8.992792535655250e-02	2.726817474120147e+00	8.823608674276453e-01	9.652002233321333e-01	-2.625873494918632e-01	9.183567438811139e-01	
37	6.812700033190000e-01	-4.412719982107463e-02	9.094466149714505e-01	9.729800718641409e-01	8.642973808027840e-02	2.714534303397868e+00	8.759805537686935e-01	9.632017309737225e-01	-2.768291210520233e-01	9.249341617190576e-01	
38	6.664699912070000e-01	-4.541329826442491e-02	9.048175212451458e-01	9.740892349635680e-01	8.286848190815292e-02	2.702492766130455e+00	8.697463292456392e-01	9.612394862212174e-01	-2.907448007909839e-01	9.313734202923081e-01	
39	6.514999866490000e-01	-4.665758950904610e-02	9.002998526293928e-01	9.751061675733758e-01	7.925396012125019e-02	2.690731594061082e+00	8.636716479754358e-01	9.593155496505066e-01	-3.043043571976879e-01	9.376693502820683e-01	
40	6.363800168040000e-01	-4.785671295715659e-02	8.958921927605559e-01	9.760125193670333e-01	7.559841555524163e-02	2.679240835332438e+00	8.577608704377857e-01	9.574375994892040e-01	-3.174980570585141e-01	9.437984513934554e-01	
41	6.211299896240000e-01	-4.900767563185954e-02	8.916013102728463e-01	9.768417371120510e-01	7.190638601003468e-02	2.668048094581231e+00	8.520131144992901e-01	9.555987689593668e-01	-3.303278694212275e-01	9.497846723770562e-01	
42	6.057599782940000e-01	-5.010852096846598e-02	8.874068906546795e-01	9.775682885548932e-01	6.819598961207805e-02	2.657091241134131e+00	8.464103086698580e-01	9.538018214456546e-01	-3.428341324333527e-01	9.556204107354677e-01	
43	5.902799963950000e-01	-5.115748251272151e-02	8.833213111272760e-01	9.782272195700942e-01	6.446679873265483e-02	2.646413275072399e+00	8.409583194266024e-01	9.520412434671019e-01	-3.550037512799054e-01	9.613248528168508e-01	
44	5.747100114820000e-01	-5.215234339378003e-02	8.793606437465065e-01	9.787858801105377e-01	6.072554474520165e-02	2.636045733121232e+00	8.356890613394984e-01	9.503371196816979e-01	-3.667654880814769e-01	9.668342781642695e-01	
45	5.590599775310000e-01	-5.309176576504207e-02	8.755783368721404e-01	9.792821972841510e-01	5.696060398706502e-02	2.626140739289737e+00	8.306614260160151e-01	9.487002944629908e-01	-3.779878883571091e-01	9.721152099871077e-01	
46	5.433599948880000e-01	-5.397343493328261e-02	8.719656842797995e-01	9.796949305133243e-01	5.317516633657773e-02	2.616667617878840e+00	8.258717171189064e-01	9.471378656386412e-01	-3.886792028595840e-01	9.771463842983327e-01	
47	5.276100039480000e-01	-5.479695270238091e-02	8.684515108074599e-01	9.800752450146608e-01	4.938180002653333e-02	2.607454377206442e+00	8.212109240533269e-01	9.456036564318832e-01	-3.990827588095383e-01	9.820776628491660e-01	
48	5.118399858470000e-01	-5.556042424156057e-02	8.648810328841195e-01	9.803927324019073e-01	4.560922915147587e-02	2.598083143567246e+00	8.164858332365174e-01	9.440440964623557e-01	-4.096298365256309e-01	9.870814781663256e-01	
49	4.960500001910000e-01	-5.626356255935743e-02	8.612591504137420e-01	9.806799391366294e-01	4.186161887108346e-02	2.588577520957429e+00	8.116921865204273e-01	9.424482586112405e-01	-4.203299408026177e-01	9.921925804263251e-01	
50	4.802699983120000e-01	-5.690476140159939e-02	8.578488808164308e-01	9.808719607363899e-01	3.809489652609421e-02	2.579608396916965e+00	8.071974925664022e-01	9.409553484503906e-01	-4.303627398071380e-01	9.969658859525666e-01	
51	4.645099937920000e-01	-5.748338120010155e-02	8.550746926985802e-01	9.809920576107252e-01	3.424035357267977e-02	2.572298524225934e+00	8.035548123901577e-01	9.397480936480207e-01	-4.384937223433980e-01	1.000820235754311e+00	
52	4.487800002100000e-01	-5.799871694436487e-02	8.530515603783071e-01	9.810314384811777e-01	3.026642860990887e-02	2.566945045284056e+00	8.009209223099334e-01	9.388892295733510e-01	-4.443729412724701e-01	1.003559287848341e+00	
53	4.331099987030000e-01	-5.844943809674690e-02	8.513590574789496e-01	9.810624920515895e-01	2.616411873427932e-02	2.562464256136422e+00	7.987196714636592e-01	9.381701697387630e-01	-4.492864476257608e-01	1.005850586276966e+00	
54	4.174999892710000e-01	-5.883510503065597e-02	8.490714044035710e-01	9.811225934060797e-01	2.199582783529195e-02	2.556434554220347e+00	7.957176692516897e-01	9.371622517550696e-01	-4.559873454203354e-01	1.009059474190137e+00	
55	4.019699990750000e-01	-5.915461484385470e-02	8.451981231769113e-01	9.812400327558358e-01	1.784448571205224e-02	2.546265417781495e+00	7.905950061335046e-01	9.353960739546302e-01	-4.674218613091414e-01	1.014674503502750e+00	
56	3.865399956700000e-01	-5.940689018647183e-02	8.392430823375636e-01	9.812945978286588e-01	1.377355281229343e-02	2.530623568265879e+00	7.827262250889063e-01	9.326573451267072e-01	-4.849861047122627e-01	1.023362123764296e+00	
57	3.712300062180000e-01	-5.959087551788590e-02	8.317439642811367e-01	9.811423728790311e-01	9.723882235985084e-03	2.510886440854786e+00	7.728566752837412e-01	9.292002208296267e-01	-5.070163498130776e-01	1.034296445116882e+00	
58	3.560400009160000e-01	-5.970565006572379e-02	8.242146820014552e-01	9.806566153732633e-01	5.493570730499371e-03	2.490987959621743e+00	7.630293878744349e-01	9.257653431040044e-01	-5.289522592088508e-01	1.045126724655236e+00	
59	3.409900069240000e-01	-5.974994653963452e-02	8.182217779035558e-01	9.800400909228217e-01	9.605433102080049e-04	2.475092604531040e+00	7.552646296382007e-01	9.230561322546763e-01	-5.462843088433019e-01	1.053646532376748e+00	
60	3.261100053790000e-01	-5.972257993691099e-02	8.144556022335955e-01	9.795080963475292e-01	-3.857812173670469e-03	2.465066975849268e+00	7.504213157395221e-01	9.213778058393078e-01	-5.570952773671383e-01	1.058914980433023e+00	
61	3.113999962810000e-01	-5.962234801325339e-02	8.127303027062506e-01	9.791395592941069e-01	-8.907167745312498e-03	2.460443306233305e+00	7.482334648521622e-01	9.206417705365176e-01	-5.619788730978521e-01	1.061223254628638e+00	
62	2.968699932100000e-01	-5.944787430916522e-02	8.124946680754471e-01	9.789666739513059e-01	-1.417341150315392e-02	2.459789538755165e+00	7.479569416865620e-01	9.205684308775156e-01	-5.625961123067812e-01	1.061453181510114e+00	
63	2.825500071050000e-01	-5.919807573045771e-02	8.132149734363582e-01	9.788918655996098e-01	-1.965227625601281e-02	2.461678351576878e+00	7.489119097761128e-01	9.209273491503444e-01	-5.604644871068911e-01	1.060327812085442e+00	
64	2.684499919410000e-01	-5.887171245434814e-02	8.145937905275407e-01	9.789012726827434e-01	-2.539084208968089e-02	2.465330157153939e+00	7.507037039243122e-01	9.215681639779597e-01	-5.564649465975174e-01	1.058317780590353e+00	
65	2.545700073240000e-01	-5.846717141494674e-02	8.164811943134267e-01	9.789047977109704e-01	-3.142000965551153e-02	2.470325071344870e+00	7.531603007183310e-01	9.224465988486831e-01	-5.509814716108684e-01	1.055560745432176e+00	
66	2.409400045870000e-01	-5.798370355844536e-02	8.188684060505228e-01	9.789256350375644e-01	-3.779460648486564e-02	2.476651851709327e+00	7.562582838001197e-01	9.235406790788556e-01	-5.440663308033042e-01	1.052124155605130e+00	
67	2.275699973110000e-01	-5.742015651879986e-02	8.216965219050835e-01	9.788958218098414e-01	-4.452983959862331e-02	2.484137171154632e+00	7.599384266920379e-01	9.248407489058604e-01	-5.358517261338439e-01	1.048036515454926e+00	
68	2.144699990750000e-01	-5.677539736248139e-02	8.248887146304956e-01	9.788274899887344e-01	-5.165685755845317e-02	2.492588724425190e+00	7.640897192558477e-01	9.262943057696184e-01	-5.265854480896257e-01	1.043460998242770e+00	
69	2.016600072380000e-01	-5.604893574547547e-02	8.283324707182995e-01	9.786558113240821e-01	-5.919381602702327e-02	2.501694542726944e+00	7.685799243060941e-01	9.278640539584426e-01	-5.165626689596113e-01	1.038513305089373e+00	
70	1.891400069000000e-01	-5.523928531146777e-02	8.320338293038801e-01	9.783914514312581e-01	-6.718289504043098e-02	2.511479449480380e+00	7.734080611146470e-01	9.295392012626673e-01	-5.057855778690915e-01	1.033225842014758e+00	
71	1.769299954180000e-01	-5.434626154822374e-02	8.361385078829240e-01	9.779800543281912e-01	-7.568419774592429e-02	2.522314062944076e+00	7.787788073044990e-01	9.313992836860753e-01	-4.937973051238862e-01	1.027345230981982e+00	
72	1.650400012730000e-01	-5.336926821350282e-02	8.408834804404512e-01	9.774189509164409e-01	-8.476518508212630e-02	2.534828464642827e+00	7.849976596984403e-01	9.335391620337957e-01	-4.799159381731244e-01	1.020567400649741e+00	
73	1.534900069240000e-01	-5.230880433828074e-02	8.463463340881425e-01	9.766281027545154e-01	-9.445735825524884e-02	2.549210666236629e+00	7.921829222238835e-01	9.360032534168005e-01	-4.638774057502600e-01	1.012745285313869e+00	
74	1.422899961470000e-01	-5.116486325247160e-02	8.524636248853085e-01	9.755929657999820e-01	-1.048019717222723e-01	2.565302189198829e+00	8.002425953423941e-01	9.387410465168644e-01	-4.458870639678704e-01	1.004031615957123e+00	
75	1.314399987460000e-01	-4.993645417528784e-02	8.590914408731499e-01	9.741753107261989e-01	-1.158463809563749e-01	2.582693591423325e+00	8.090179536740078e-01	9.417134372235755e-01	-4.262992105490899e-01	9.945430096698441e-01	
76	1.209499984980000e-01	-4.862362102578319e-02	8.662832435298371e-01	9.723946261232262e-01	-1.276967666965024e-01	2.601550257047893e+00	8.185546801477461e-01	9.449042057103499e-01	-4.050118746702095e-01	9.843229402602454e-01	
77	1.108499988910000e-01	-4.722948616818855e-02	8.742061640623345e-01	9.701554726865727e-01	-1.404146454926401e-01	2.622301874726359e+00	8.290829236763568e-01	9.483837540377261e-01	-3.815113310795606e-01	9.731352620741768e-01	
78	1.011300012470000e-01	-4.575214591989551e-02	8.829161973073318e-01	9.672327353935328e-01	-1.540732692139392e-01	2.645049836559782e+00	8.407223610538098e-01	9.522108254642940e-01	-3.555304440763174e-01	9.607759501576926e-01	
79	9.181000292300000e-02	-4.419403676674413e-02	8.924509510835460e-01	9.634697675963179e-01	-1.687903626466416e-01	2.669877379467395e+00	8.535382317527964e-01	9.563979182458100e-01	-3.269235898375080e-01	9.471849046669492e-01	
80	8.290000259900000e-02	-4.255658156900414e-02	9.029201923705646e-01	9.587795503325034e-01	-1.846798474988345e-01	2.697087197020168e+00	8.676612047084802e-01	9.609500507796666e-01	-2.953990966328567e-01	9.323216784525701e-01	
81	7.440000027400000e-02	-4.083942285756112e-02	9.143796654933616e-01	9.528771291997584e-01	-2.018487945006276e-01	2.726786667855760e+00	8.832039809370411e-01	9.659050985790468e-01	-2.607053996941047e-01	9.160321336804653e-01	
82	6.633000075800000e-02	-3.904640508978203e-02	9.269747422896336e-01	9.455034967277913e-01	-2.204465576203802e-01	2.759344152360470e+00	9.003721313154097e-01	9.713016873485516e-01	-2.223836354566747e-01	8.981495018160123e-01	
83	5.869000032500000e-02	-3.717749704855268e-02	9.408188611888521e-01	9.362538985028630e-01	-2.406038409984614e-01	2.795015518536126e+00	9.193576451217677e-01	9.771887905818927e-01	-1.800052564246258e-01	8.784589086899077e-01	
84	5.149000138000000e-02	-3.523498454090286e-02	9.560944596993642e-01	9.246264072987819e-01	-2.624360640956930e-01	2.834233898607436e+00	9.404476575468844e-01	9.836346691545523e-01	-1.329293358328473e-01	8.566606456117333e-01	
85	4.473999887700000e-02	-3.322163435080430e-02	9.730687693183921e-01	9.099081223877685e-01	-2.860599397215416e-01	2.877632101211282e+00	9.640643954770769e-01	9.907464157465229e-01	-8.021340295295336e-02	8.322912855098398e-01	
86	3.844000026600000e-02	-3.113735717452585e-02	9.919628223955972e-01	8.911920779638741e-01	-3.115503152659747e-01	2.925708788508123e+00	9.905818373473251e-01	9.986078258004298e-01	-2.102268449257795e-02	8.049184277669094e-01	
