"PointID"	"x"	"y"	"Conservative_1"	"Conservative_2"	"Conservative_3"	"Conservative_4"	"Pressure"	"Temperature"	"C<sub>p</sub>"	"Mach"
0	9.997500181200000e-01	-3.633229496298045e-05	1.199495399894878e+00	7.201994273738247e-01	1.010474883424593e-01	3.445586023776494e+00	1.290047691973163e+00	1.075491987786048e+00	6.474278838686682e-01	4.941055022635410e-01	
1	9.990000128750000e-01	-1.454639391897814e-04	1.181093901925188e+00	7.467706257999963e-01	1.067412908009838e-01	3.399532668562914e+00	1.263451538542152e+00	1.069729965147327e+00	5.880614699601600e-01	5.219074917470164e-01	
2	9.977599978450000e-01	-3.274153606544278e-04	1.170462360217613e+00	7.651400913453277e-01	1.128916462920905e-01	3.373731367084973e+00	1.247279284192162e+00	1.065629555110399e+00	5.519626879289337e-01	5.409943821249231e-01	
3	9.960200190539999e-01	-5.894302300845781e-04	1.163785779997802e+00	7.762825013838389e-01	1.196455149765184e-01	3.357623232331708e+00	1.237028136494440e+00	1.062934569020749e+00	5.290806618179474e-01	5.532576961113796e-01	
4	9.937800168990000e-01	-9.452990164950654e-04	1.158979617148837e+00	7.825335916211656e-01	1.297722972371383e-01	3.345896247058461e+00	1.229780287121336e+00	1.061088796493828e+00	5.129024266101259e-01	5.615372398707438e-01	
5	9.910500049590000e-01	-1.417131689318471e-03	1.154327747904834e+00	7.876270920531296e-01	1.439241985985278e-01	3.334559571703653e+00	1.222751282389149e+00	1.059275655989824e+00	4.972126839043512e-01	5.695807260353922e-01	
6	9.878399968150000e-01	-2.034228024411254e-03	1.147352579199088e+00	7.936563498853677e-01	1.617747123627922e-01	3.317238323989605e+00	1.212534413663375e+00	1.056810640117084e+00	4.744071733557476e-01	5.803804302781145e-01	
7	9.841300249100000e-01	-2.831524359585421e-03	1.136481954395225e+00	8.033844564444893e-01	1.814720946358068e-01	3.290167127902992e+00	1.196688148602017e+00	1.052975935054622e+00	4.390360459866449e-01	5.968894689322739e-01	
8	9.799500107769999e-01	-3.820551088029327e-03	1.120521780805044e+00	8.182391069657732e-01	1.999569482859079e-01	3.250343745927326e+00	1.173500420986104e+00	1.047280330546540e+00	3.872777254154102e-01	6.208115653554387e-01	
9	9.752799868580000e-01	-4.998471127024451e-03	1.099580427584567e+00	8.382601867468533e-01	2.134305514640636e-01	3.198043914029216e+00	1.143123338720661e+00	1.039599569111779e+00	3.194717382157601e-01	6.520701050728849e-01	
10	9.701499938960000e-01	-6.319845091312446e-03	1.074892037816702e+00	8.617666711454698e-01	2.188299823187807e-01	3.136276266187567e+00	1.107420691154692e+00	1.030262251643488e+00	2.397783284702951e-01	6.887410507706357e-01	
11	9.645400047300000e-01	-7.728268636965863e-03	1.049036211095536e+00	8.855309136424687e-01	2.146586494086330e-01	3.071360338556373e+00	1.070257257238362e+00	1.020229088298738e+00	1.568242349070575e-01	7.267739469486572e-01	
12	9.584699869160000e-01	-9.150954612489676e-03	1.026245153797533e+00	9.060589692332298e-01	2.019076166876776e-01	3.013980323494165e+00	1.037657686401117e+00	1.011120668937001e+00	8.405733571677876e-02	7.602629381215426e-01	
13	9.519400000570000e-01	-1.053452208134836e-02	1.010282660110132e+00	9.210712173684807e-01	1.842665189705840e-01	2.973776388487198e+00	1.014841351949972e+00	1.004512293459876e+00	3.312801774547407e-02	7.840252986776347e-01	
14	9.449599981310000e-01	-1.185202406502500e-02	1.002166518297516e+00	9.300129859180010e-01	1.662850285544521e-01	2.953360064682863e+00	1.003214972786482e+00	1.001046187903730e+00	7.176278541255149e-03	7.963268538354018e-01	
15	9.375399947170000e-01	-1.310774794034957e-02	1.000103180423746e+00	9.338659786267351e-01	1.514881766525622e-01	2.948158095180650e+00	1.000270839843359e+00	1.000167642122228e+00	6.045532217831472e-04	7.994282177238909e-01	
16	9.296900033950000e-01	-1.432811295924969e-02	1.001073170689201e+00	9.346256982337156e-01	1.414457676578986e-01	2.950552372023575e+00	1.001706105509408e+00	1.000632256301277e+00	3.808271226357332e-03	7.977889017188889e-01	
17	9.214000105860000e-01	-1.555021985535288e-02	1.002360030018257e+00	9.343164070562817e-01	1.359188584868667e-01	2.953716769579452e+00	1.003622256359050e+00	1.001259254462461e+00	8.085393658594746e-03	7.955737061188684e-01	
18	9.126999974250000e-01	-1.680039026021283e-02	1.002287515135144e+00	9.343478886783565e-01	1.335994731003117e-01	2.953440754532585e+00	1.003611981129010e+00	1.001321443172609e+00	8.062457877255109e-03	7.953538075046316e-01	
19	9.035800099370001e-01	-1.809908642227151e-02	1.000277130537053e+00	9.353123873761392e-01	1.329114307616764e-01	2.948257988061390e+00	1.000857705837591e+00	1.000580414449970e+00	1.914521958907825e-03	7.979719087689294e-01	
20	8.940600156780000e-01	-1.944985420340819e-02	9.965372539432017e-01	9.372617061100235e-01	1.326009880974587e-01	2.938701282739759e+00	9.956492977069874e-01	9.991089583126967e-01	-9.711389046903121e-03	8.031567768574958e-01	
21	8.841500282290000e-01	-2.084826332408404e-02	9.916013297716407e-01	9.399037407808324e-01	1.319271897030418e-01	2.926110122061261e+00	9.887533232737026e-01	9.971278714414453e-01	-2.510418912119960e-02	8.101088671573553e-01	
22	8.738499879840000e-01	-2.228640107495410e-02	9.860311321971355e-01	9.428736082585242e-01	1.306103771414932e-01	2.911895244405004e+00	9.809769407211418e-01	9.948742069991935e-01	-4.246218589030841e-02	8.179788521183075e-01	
23	8.631799817090000e-01	-2.375247334811427e-02	9.802809887864400e-01	9.458898252243350e-01	1.286744234049905e-01	2.897206834936580e+00	9.729636599283935e-01	9.925354781519278e-01	-6.034897337412163e-02	8.261038541352955e-01	
24	8.521599769590000e-01	-2.523604524508393e-02	9.746183014171395e-01	9.487685881462482e-01	1.262796509443229e-01	2.882719534415028e+00	9.650945485536543e-01	9.902282228338655e-01	-7.791395412130740e-02	8.340790225722625e-01	
25	8.407700061800000e-01	-2.673405507853950e-02	9.691521791344165e-01	9.514449333682653e-01	1.236180230884341e-01	2.868713943418274e+00	9.575197708235750e-01	9.879973356493604e-01	-9.482194012594872e-02	8.417532991946238e-01	
26	8.290500044819999e-01	-2.823733792598147e-02	9.638766658626935e-01	9.539121530244471e-01	1.208187644931601e-01	2.855174893910151e+00	9.502309801749979e-01	9.858429131329970e-01	-1.110915621093798e-01	8.491312357466559e-01	
27	8.170099854470000e-01	-2.974206539102642e-02	9.587492429412501e-01	9.562102329173410e-01	1.179692362542824e-01	2.842000993193850e+00	9.431617045593992e-01	9.837417984977685e-01	-1.268711951799125e-01	8.562961196342913e-01	
28	8.046399950980000e-01	-3.124741625600906e-02	9.537088086784827e-01	9.583491272327245e-01	1.150959446866487e-01	2.829030980060385e+00	9.362319745061422e-01	9.816748739098285e-01	-1.423393426202184e-01	8.633159533651874e-01	
29	7.919700145720000e-01	-3.274777372367942e-02	9.487250306425502e-01	9.603598453101821e-01	1.121885811334955e-01	2.816191188578574e+00	9.293957028101416e-01	9.796259957225782e-01	-1.575988776559339e-01	8.702474960257248e-01	
30	7.790099978450000e-01	-3.423992113748657e-02	9.437822366533604e-01	9.622768969455564e-01	1.092372843150460e-01	2.803448676251009e+00	9.226239579988099e-01	9.775813976648073e-01	-1.727143794669422e-01	8.771385766568058e-01	
31	7.657799720760000e-01	-3.571930858066280e-02	9.388388737046298e-01	9.640932332878203e-01	1.062231696128469e-01	2.790689428616620e+00	9.158667022052442e-01	9.755312949401660e-01	-1.877975397204370e-01	8.840229400575850e-01	
32	7.522799968720000e-01	-3.718345440236058e-02	9.338610391647567e-01	9.658219311107217e-01	1.031349531070934e-01	2.777826354693838e+00	9.090771781328252e-01	9.734608683813407e-01	-2.029527273820867e-01	8.909506503434377e-01	
33	7.385200262070000e-01	-3.862859709399963e-02	9.288631683759594e-01	9.674627993203221e-01	9.996589380929762e-02	2.764897732505879e+00	9.022740982258292e-01	9.713746103243400e-01	-2.181381736030599e-01	8.979067934012964e-01	
34	7.245299816130000e-01	-4.004894603426092e-02	9.238914353318655e-01	9.690039357132660e-01	9.670216146447451e-02	2.752022497632785e+00	8.955208235827867e-01	9.692922667489740e-01	-2.332124473598511e-01	9.048260746224086e-01	
35	7.103199958800001e-01	-4.144094204798303e-02	9.189892929791068e-01	9.704327863112404e-01	9.335767870246379e-02	2.739312534864976e+00	8.888770220962925e-01	9.672332734310771e-01	-2.480423613922043e-01	9.116450936623735e-01	
36	6.958900094030001e-01	-4.280208106113215e-02	9.141739609977204e-01	9.717650530649738e-01	8.992794897908794e-02	2.726817593299462e+00	8.823609286796958e-01	9.652002423222557e-01	-2.625872127685361e-01	9.183566820786159e-01	
37	6.812700033190000e-01	-4.412719557780292e-02	9.094466618347783e-01	9.729800625655390e-01	8.642976365337877e-02	2.714534427053566e+00	8.759806170507074e-01	9.632017509234088e-01	-2.768289797975281e-01	9.249340978514644e-01	
38	6.664699912070000e-01	-4.541329442308119e-02	9.048175748610793e-01	9.740892256456244e-01	8.286850791381835e-02	2.702492907845980e+00	8.697464015095652e-01	9.612395091276840e-01	-2.907446394875777e-01	9.313733472602458e-01	
39	6.514999866490000e-01	-4.665758609854002e-02	9.002999129057733e-01	9.751061592836663e-01	7.925398648949107e-02	2.690731754146286e+00	8.636717289077168e-01	9.593155753177444e-01	-3.043041765452750e-01	9.376692690879143e-01	
40	6.363800168040000e-01	-4.785671000699748e-02	8.958922516675847e-01	9.760125131503650e-01	7.559844441612289e-02	2.679240992745674e+00	8.577609492047418e-01	9.574376244555454e-01	-3.174978812394157e-01	9.437983732042943e-01	
41	6.211299896240000e-01	-4.900767317114985e-02	8.916013607140514e-01	9.768417317241744e-01	7.190641661410654e-02	2.668048228038697e+00	8.520131814312081e-01	9.555987899669216e-01	-3.303277200196248e-01	9.497846051725238e-01	
42	6.057599782940000e-01	-5.010851902516380e-02	8.874069264487017e-01	9.775682842089004e-01	6.819602351965667e-02	2.657091335560643e+00	8.464103560428456e-01	9.538018363571723e-01	-3.428340266900767e-01	9.556203627933175e-01	
43	5.902799963950000e-01	-5.115748111261346e-02	8.833213360087613e-01	9.782272151483080e-01	6.446683552657549e-02	2.646413340265962e+00	8.409583525182301e-01	9.520412541126362e-01	-3.550036774146649e-01	9.613248184094708e-01	
44	5.747100114820000e-01	-5.215234255911036e-02	8.793606703343027e-01	9.787858744071708e-01	6.072558082397438e-02	2.636045801829309e+00	8.356890969787873e-01	9.503371314765389e-01	-3.667654085294925e-01	9.668342395223370e-01	
45	5.590599775310000e-01	-5.309176551391308e-02	8.755783716515542e-01	9.792821929962613e-01	5.696064005663198e-02	2.626140831970472e+00	8.306614727986228e-01	9.487003102095738e-01	-3.779877839316456e-01	9.721151611389578e-01	
46	5.433599948880000e-01	-5.397343527805080e-02	8.719657275130464e-01	9.796949277723551e-01	5.317520109622236e-02	2.616667733755476e+00	8.258717748008366e-01	9.471378848298601e-01	-3.886790741052754e-01	9.771463251008714e-01	
47	5.276100039480000e-01	-5.479695365008350e-02	8.684515500286555e-01	9.800752450654970e-01	4.938183448807888e-02	2.607454483165405e+00	8.212109756458058e-01	9.456036731337623e-01	-3.990826436477549e-01	9.820776116096336e-01	
48	5.118399858470000e-01	-5.556042579222543e-02	8.648810486165049e-01	9.803927357072946e-01	4.560926695465597e-02	2.598083188900098e+00	8.164858531253296e-01	9.440441022859851e-01	-4.096297921309607e-01	9.870814622541100e-01	
49	4.960500001910000e-01	-5.626356470676512e-02	8.612591377024635e-01	9.806799419342260e-01	4.186165852371031e-02	2.588577489625606e+00	8.116921686404169e-01	9.424482517604705e-01	-4.203299807133551e-01	9.921926032108991e-01	
50	4.802699983120000e-01	-5.690476413194936e-02	8.578488532771431e-01	9.808719618103274e-01	3.809493649598823e-02	2.579608325785963e+00	8.071974557010915e-01	9.409553356834905e-01	-4.303628220957780e-01	9.969659273866687e-01	
51	4.645099937920000e-01	-5.748338449275499e-02	8.550746796275860e-01	9.809920557635858e-01	3.424039020146059e-02	2.572298490605844e+00	8.035547957580713e-01	9.397480885623309e-01	-4.384937594685908e-01	1.000820253181883e+00	
52	4.487800002100000e-01	-5.799872077197870e-02	8.530515865447296e-01	9.810314345956309e-01	3.026645820936550e-02	2.566945113818381e+00	8.009209580188962e-01	9.388892426342146e-01	-4.443728615649639e-01	1.003559247047298e+00	
53	4.331099987030000e-01	-5.844944242494018e-02	8.513591175977900e-01	9.810624896927796e-01	2.616414216199809e-02	2.562464415523719e+00	7.987197519956594e-01	9.381701980820284e-01	-4.492862678668318e-01	1.005850498278143e+00	
54	4.174999892710000e-01	-5.883510981948076e-02	8.490714626711153e-01	9.811225945672273e-01	2.199584658033327e-02	2.556434709827343e+00	7.957177463315602e-01	9.371622782236632e-01	-4.559871733670531e-01	1.009059392319414e+00	
55	4.019699990750000e-01	-5.915462004775296e-02	8.451981248228119e-01	9.812400388538611e-01	1.784450466874547e-02	2.546265425836627e+00	7.905950068074683e-01	9.353960729304854e-01	-4.674218598047583e-01	1.014674508742383e+00	
56	3.865399956700000e-01	-5.940689575506924e-02	8.392429761806370e-01	9.812946038996714e-01	1.377357820298942e-02	2.530623293559066e+00	7.827260831673707e-01	9.326572939931266e-01	-4.849864215014047e-01	1.023362287965581e+00	
57	3.712300062180000e-01	-5.959088139689397e-02	8.317437528485043e-01	9.811423690263890e-01	9.723909737292660e-03	2.510885886045833e+00	7.728563962017119e-01	9.292001214976144e-01	-5.070169727640360e-01	1.034296759549010e+00	
58	3.560400009160000e-01	-5.970565619822494e-02	8.242144181852047e-01	9.806565983545918e-01	5.493594013097978e-03	2.490987263678925e+00	7.630290428386070e-01	9.257652208010162e-01	-5.289530293781095e-01	1.045127110219552e+00	
59	3.409900069240000e-01	-5.974995286659614e-02	8.182215255370605e-01	9.800400661101966e-01	9.605579347263149e-04	2.475091936536157e+00	7.552643019097414e-01	9.230560164180533e-01	-5.462850403800417e-01	1.053646896807708e+00	
60	3.261100053790000e-01	-5.972258639817027e-02	8.144553988552794e-01	9.795080715591592e-01	-3.857805672931072e-03	2.465066436028133e+00	7.504210529148850e-01	9.213777132174521e-01	-5.570958640292745e-01	1.058915271254285e+00	
61	3.113999962810000e-01	-5.962235454882871e-02	8.127301525226973e-01	9.791395393425721e-01	-8.907166356891304e-03	2.460442907405564e+00	7.482332713420073e-01	9.206417025620462e-01	-5.619793050401622e-01	1.061223468272024e+00	
62	2.968699932100000e-01	-5.944788085998427e-02	8.124945600824907e-01	9.789666593462277e-01	-1.417341411649057e-02	2.459789252012411e+00	7.479568026476872e-01	9.205683821092280e-01	-5.625964226614126e-01	1.061453334918050e+00	
63	2.825500071050000e-01	-5.919808223928859e-02	8.132148939626788e-01	9.788918556259975e-01	-1.965228192124985e-02	2.461678141018763e+00	7.489118072600786e-01	9.209273130878600e-01	-5.604647159373247e-01	1.060327925793707e+00	
64	2.684499919410000e-01	-5.887171886670720e-02	8.145937308306449e-01	9.789012658215642e-01	-2.539085107397072e-02	2.465329999260793e+00	7.507036266998907e-01	9.215681367132484e-01	-5.564651189734584e-01	1.058317866642564e+00	
65	2.545700073240000e-01	-5.846717767966236e-02	8.164811496720331e-01	9.789047931898256e-01	-3.142002205714198e-02	2.470324953620175e+00	7.531602427587206e-01	9.224465782966975e-01	-5.509816009849986e-01	1.055560810462824e+00	
66	2.409400045870000e-01	-5.798370962859596e-02	8.188683745728214e-01	9.789256322709610e-01	-3.779462235061688e-02	2.476651769034526e+00	7.562582427496896e-01	9.235406644495295e-01	-5.440664224337287e-01	1.052124202070696e+00	
67	2.275699973110000e-01	-5.742016235211112e-02	8.216965021647250e-01	9.788958204349937e-01	-4.452985859665703e-02	2.484137119749823e+00	7.599384007586603e-01	9.248407395633723e-01	-5.358517840208477e-01	1.048036545380778e+00	
68	2.144699990750000e-01	-5.677540292171861e-02	8.248887061294653e-01	9.788274894474688e-01	-5.165687962887221e-02	2.492588702741354e+00	7.640897078857162e-01	9.262943015318644e-01	-5.265854734693836e-01	1.043461012046034e+00	
69	2.016600072380000e-01	-5.604894099898440e-02	8.283324728103735e-01	9.786558113893622e-01	-5.919384093510803e-02	2.501694549068019e+00	7.685799266858833e-01	9.278640544879749e-01	-5.165626636475820e-01	1.038513303832017e+00	
70	1.891400069000000e-01	-5.523929023290554e-02	8.320338412412436e-01	9.783914517880071e-01	-6.718292245273511e-02	2.511479481831151e+00	7.734080763186285e-01	9.295392061996470e-01	-5.057855439316328e-01	1.033225826800464e+00	
71	1.769299954180000e-01	-5.434626611713862e-02	8.361385286123100e-01	9.779800546817882e-01	-7.568422724722633e-02	2.522314118471670e+00	7.787788339877196e-01	9.313992925074429e-01	-4.937972455631258e-01	1.027345203400448e+00	
72	1.650400012730000e-01	-5.336927241508435e-02	8.408835091540597e-01	9.774189508001367e-01	-8.476521633874176e-02	2.534828541083678e+00	7.849976968859167e-01	9.335391743805694e-01	-4.799158551653646e-01	1.020567361740268e+00	
73	1.534900069240000e-01	-5.230880816357715e-02	8.463463700858360e-01	9.766281018458184e-01	-9.445739089786907e-02	2.549210761730026e+00	7.921829690597535e-01	9.360032689446177e-01	-4.638773012059074e-01	1.012745236148227e+00	
74	1.422899961470000e-01	-5.116486669789790e-02	8.524636676833623e-01	9.755929637705659e-01	-1.048020053711419e-01	2.565302302412995e+00	8.002426512426088e-01	9.387410649621373e-01	-4.458869391906052e-01	1.004031557298373e+00	
75	1.314399987460000e-01	-4.993645724198996e-02	8.590914898694834e-01	9.741753072126164e-01	-1.158464151385347e-01	2.582693720730652e+00	8.090180179256148e-01	9.417134583052665e-01	-4.262990671303242e-01	9.945429423711100e-01	
76	1.209499984980000e-01	-4.862362371963126e-02	8.662832981745484e-01	9.723946207556057e-01	-1.276968010014325e-01	2.601550400883506e+00	8.185547520770831e-01	9.449042291383896e-01	-4.050117141136539e-01	9.843228651085512e-01	
77	1.108499988910000e-01	-4.722948850012241e-02	8.742062236561159e-01	9.701554650750628e-01	-1.404146794251492e-01	2.622302031203330e+00	8.290830024519508e-01	9.483837794983316e-01	-3.815111552411813e-01	9.731351800209210e-01	
78	1.011300012470000e-01	-4.575214790406970e-02	8.829162612434620e-01	9.672327252380962e-01	-1.540733023117090e-01	2.645050004031261e+00	8.407224459177560e-01	9.522108526279924e-01	-3.555302546478660e-01	9.607758621487940e-01	
79	9.181000292300000e-02	-4.419403842114401e-02	8.924510187744035e-01	9.634697544957007e-01	-1.687903943868148e-01	2.669877556357962e+00	8.535383220278825e-01	9.563979468587988e-01	-3.269233883306195e-01	9.471848114640661e-01	
80	8.290000259900000e-02	-4.255658291460834e-02	9.029202633975985e-01	9.587795339190536e-01	-1.846798773767525e-01	2.697087382095591e+00	8.676612998774504e-01	9.609500805890967e-01	-2.953988842021196e-01	9.323215806585672e-01	
81	7.440000027400000e-02	-4.083942391752060e-02	9.143797394196379e-01	9.528771091230008e-01	-2.018488219522343e-01	2.726786859970490e+00	8.832040805047137e-01	9.659051293779634e-01	-2.607051774448356e-01	9.160320318948523e-01	
82	6.633000075800000e-02	-3.904640588961479e-02	9.269748187244297e-01	9.455034725989687e-01	-2.204465820060392e-01	2.759344350418342e+00	9.003722348320592e-01	9.713017189302111e-01	-2.223834043927250e-01	8.981493965401977e-01	
83	5.869000032500000e-02	-3.717749761500267e-02	9.408189397629365e-01	9.362538699232601e-01	-2.406038616859073e-01	2.795015721583107e+00	9.193577521911693e-01	9.771888227747896e-01	-1.800050174304256e-01	8.784588003787961e-01	
84	5.149000138000000e-02	-3.523498490181202e-02	9.560945400879370e-01	9.246263738357983e-01	-2.624360802862156e-01	2.834234105569231e+00	9.404477677467517e-01	9.836347017108308e-01	-1.329290898510008e-01	8.566605346550178e-01	
85	4.473999887700000e-02	-3.322163453464988e-02	9.730688511798313e-01	9.099080834985558e-01	-2.860599506046374e-01	2.877632311198509e+00	9.640645084689909e-01	9.907464485170576e-01	-8.021315073885950e-02	8.322911722027180e-01	
86	3.844000026600000e-02	-3.113735720974462e-02	9.919629053405954e-01	8.911920331505752e-01	-3.115503197178098e-01	2.925709000321664e+00	9.905819526439142e-01	9.986078585305499e-01	-2.102242713411999e-02	8.049183124564758e-01	
