"PointID"	"x"	"y"	"Conservative_1"	"Conservative_2"	"Conservative_3"	"Conservative_4"	"Pressure"	"Temperature"	"Pressure_Coefficient"	"Mach"
0	9.997500181200000e-01	-3.633228910867252e-05	1.199523667932704e+00	7.201103296565410e-01	1.010410634107497e-01	3.445649013619772e+00	1.290096579155227e+00	1.075507398181329e+00	6.475370070429165e-01	4.940297667130552e-01	
1	9.990000128750000e-01	-1.454635703216378e-04	1.181127462321147e+00	7.466967726738458e-01	1.067280013028128e-01	3.399611858249847e+00	1.263505109393614e+00	1.069744925675150e+00	5.881810477536018e-01	5.218371323189945e-01	
2	9.977599978450000e-01	-3.274113307209993e-04	1.170492732518094e+00	7.650757975149852e-01	1.128763610569673e-01	3.373802880226715e+00	1.247327941964213e+00	1.065643474163930e+00	5.520712990272615e-01	5.409307614860722e-01	
3	9.960200190539999e-01	-5.894086083053142e-04	1.163811749765168e+00	7.762283185937285e-01	1.196229087208127e-01	3.357683972857281e+00	1.237070183866734e+00	1.062946979282817e+00	5.291745175596740e-01	5.532019763371211e-01	
4	9.937800168990000e-01	-9.452216555604570e-04	1.159001574466429e+00	7.824892000521362e-01	1.297355474758549e-01	3.345947143079494e+00	1.229816336811284e+00	1.061099798227157e+00	5.129828946680451e-01	5.614884332104531e-01	
5	9.910500049590000e-01	-1.416920936114088e-03	1.154349405638964e+00	7.875891793165424e-01	1.438657918745175e-01	3.334609870713378e+00	1.222786745272650e+00	1.059286503115410e+00	4.972918421264503e-01	5.695331255673034e-01	
6	9.878399968150000e-01	-2.033758741606321e-03	1.147381309048261e+00	7.936186200441802e-01	1.616892896670608e-01	3.317306582716858e+00	1.212579836093128e+00	1.056823766023301e+00	4.745085627078748e-01	5.803235821740047e-01	
7	9.841300249100000e-01	-2.830630634466177e-03	1.136528238938778e+00	8.033372339458041e-01	1.813587947767229e-01	3.290279654658919e+00	1.196758606810290e+00	1.052995047380214e+00	4.391933187729688e-01	5.968082781264280e-01	
8	9.799500107769999e-01	-3.819067493751274e-03	1.120598675305496e+00	8.181709867090275e-01	1.998217393346793e-01	3.250533458692650e+00	1.173614538299988e+00	1.047310303111004e+00	3.875324515624739e-01	6.206876668908435e-01	
9	9.752799868580000e-01	-4.996286771293875e-03	1.099701288100009e+00	8.381606645911752e-01	2.132876412542826e-01	3.198344637772620e+00	1.143300019075939e+00	1.039645976091614e+00	3.198661140087935e-01	6.518846224643472e-01	
10	9.701499938960000e-01	-6.316976631351666e-03	1.075068658045610e+00	8.616296863079520e-01	2.187003465192375e-01	3.136718340083636e+00	1.107676156425380e+00	1.030330619477874e+00	2.403485634495081e-01	6.884775160539279e-01	
11	9.645400047300000e-01	-7.724898483397642e-03	1.049274684481041e+00	8.853591577289817e-01	2.145667780157811e-01	3.071960527608423e+00	1.070598799219943e+00	1.020322719164285e+00	1.575866054016581e-01	7.264250686476024e-01	
12	9.584699869160000e-01	-9.147436957535920e-03	1.026533799193385e+00	9.058642112321234e-01	2.018756786140534e-01	3.014709837855923e+00	1.038067978281739e+00	1.011236044149172e+00	8.497316580745219e-02	7.598444819115590e-01	
13	9.519400000570000e-01	-1.053133179846402e-02	1.010589955070839e+00	9.208691437904186e-01	1.843045670661943e-01	2.974554554965140e+00	1.015276617177458e+00	1.004637550653559e+00	3.409959191396847e-02	7.835789369150125e-01	
14	9.449599981310000e-01	-1.184967378443656e-02	1.002455796011727e+00	9.298193803087454e-01	1.663881226676677e-01	2.954092849797487e+00	1.003624485213934e+00	1.001165826170947e+00	8.090368781102662e-03	7.959042040302095e-01	
15	9.375399947170000e-01	-1.310669956224459e-02	1.000347896256705e+00	9.336938854430945e-01	1.516405364688257e-01	2.948777778077788e+00	1.000617522837990e+00	1.000269532811829e+00	1.378399191942690e-03	7.990690692766682e-01	
16	9.296900033950000e-01	-1.432871305498288e-02	1.001261757737827e+00	9.344827278655905e-01	1.416275111574085e-01	2.951029546105890e+00	1.001973699999873e+00	1.000711045095394e+00	4.405580356858290e-03	7.975109243835716e-01	
17	9.214000105860000e-01	-1.555267765624015e-02	1.002492904857015e+00	9.342042663669755e-01	1.361114585049888e-01	2.954052405485453e+00	1.003811436337889e+00	1.001315252681077e+00	8.507670397073033e-03	7.953758981221518e-01	
18	9.126999974250000e-01	-1.680477746404755e-02	1.002372129194301e+00	9.342642490173548e-01	1.337890589624192e-01	2.953653758888239e+00	1.003733258057091e+00	1.001357907730221e+00	8.333165306007227e-03	7.952250533150959e-01	
19	9.035800099370001e-01	-1.810537718228381e-02	1.000322673497709e+00	9.352531871205354e-01	1.330898956654869e-01	2.948371740790561e+00	1.000923980373921e+00	1.000601112913006e+00	2.062456191787814e-03	7.978990430100984e-01	
20	8.940600156780000e-01	-1.945795700813063e-02	9.965516168281687e-01	9.372224456898397e-01	1.327647192695220e-01	2.938735772124637e+00	9.956717350348840e-01	9.991170735379619e-01	-9.661305725705263e-03	8.031284299083438e-01	
21	8.841500282290000e-01	-2.085805699730411e-02	9.915900779694040e-01	9.398803966990740e-01	1.320755076808831e-01	2.926079341371999e+00	9.887399024245442e-01	9.971256514075895e-01	-2.513414637378519e-02	8.101168366468526e-01	
22	8.738499879840000e-01	-2.229775883926623e-02	9.859973693368308e-01	9.428631876601699e-01	1.307440985666970e-01	2.911806901086453e+00	9.809322072074188e-01	9.948629050269997e-01	-4.256203748344017e-02	8.180184137041074e-01	
23	8.631799817090000e-01	-2.376527010951418e-02	9.802258240472386e-01	9.458906003338219e-01	1.287947685430589e-01	2.897063628697814e+00	9.728892931271044e-01	9.925154686398260e-01	-6.051497069842775e-02	8.261733832269131e-01	
24	8.521599769590000e-01	-2.525015879516433e-02	9.745411888093508e-01	9.487796101620674e-01	1.263875337835840e-01	2.882519917908994e+00	9.649899402447968e-01	9.901992356257173e-01	-7.814745481072147e-02	8.341791618118736e-01	
25	8.407700061800000e-01	-2.674936438254776e-02	9.690515206037070e-01	9.514659161019261e-01	1.237136555366129e-01	2.868453706765257e+00	9.573828214385587e-01	9.879586390227439e-01	-9.512763071750294e-02	8.418862945681006e-01	
26	8.290500044819999e-01	-2.825370671652566e-02	9.637502479994293e-01	9.539430053620606e-01	1.209014824270240e-01	2.854848210209314e+00	9.500587781431865e-01	9.857935498489743e-01	-1.114759416446730e-01	8.493000981707147e-01	
27	8.170099854470000e-01	-2.975933529659635e-02	9.585947880704530e-01	9.562510299760122e-01	1.180376175762564e-01	2.841601898949444e+00	9.429512208828421e-01	9.836807299786186e-01	-1.273410248150846e-01	8.565041136670793e-01	
28	8.046399950980000e-01	-3.126539785917710e-02	9.535242730912437e-01	9.583996112264110e-01	1.151479105376152e-01	2.828554036557185e+00	9.359805792144442e-01	9.816012089341741e-01	-1.429004928249013e-01	8.635658166700309e-01	
29	7.919700145720000e-01	-3.276623564881004e-02	9.485090441983370e-01	9.604195707016252e-01	1.122215108270834e-01	2.815632700805640e+00	9.291016825579356e-01	9.795390863596836e-01	-1.582551728617510e-01	8.705411229172840e-01	
30	7.790099978450000e-01	-3.425858577516529e-02	9.435342588500022e-01	9.623452134318309e-01	1.092483360741038e-01	2.802807109954484e+00	9.222867127122363e-01	9.774808959627362e-01	-1.734671591244726e-01	8.774768361414148e-01	
31	7.657799720760000e-01	-3.573784883389101e-02	9.385588687452998e-01	9.641691250463588e-01	1.062094293764929e-01	2.789964496330914e+00	9.154863784290801e-01	9.754171090545831e-01	-1.886464767208034e-01	8.844058393270778e-01	
32	7.522799968720000e-01	-3.720149280074100e-02	9.335494724248193e-01	9.659041968645453e-01	1.030936768856356e-01	2.777019063639940e+00	9.086546059093162e-01	9.733331041890683e-01	-2.038959689524191e-01	8.913775349587487e-01	
33	7.385200262070000e-01	-3.864570687123409e-02	9.285216039706267e-01	9.675499978235391e-01	9.989452924821800e-02	2.764011948428512e+00	9.018115857147099e-01	9.712338214407754e-01	-2.191705676010940e-01	8.983755354471229e-01	
34	7.245299816130000e-01	-4.006465703917154e-02	9.235227704225848e-01	9.690941247484163e-01	9.659846407192781e-02	2.751065477507464e+00	8.950225526175556e-01	9.691396696239684e-01	-2.343246593358134e-01	9.053323955621227e-01	
35	7.103199958800001e-01	-4.145474617131805e-02	9.185979681710088e-01	9.705242474726787e-01	9.321993160830856e-02	2.738295691729240e+00	8.883491120474084e-01	9.670706259193803e-01	-2.492207320370348e-01	9.121829941924285e-01	
36	6.958900094030001e-01	-4.281343796030714e-02	9.137652821292278e-01	9.718557730234572e-01	8.975497180093368e-02	2.725754531348890e+00	8.818107225076864e-01	9.650297945801993e-01	-2.638153515453428e-01	9.189186091924054e-01	
37	6.812700033190000e-01	-4.413554706630916e-02	9.090269331261969e-01	9.730683650558153e-01	8.622109292439745e-02	2.713441479842256e+00	8.754166699232399e-01	9.630261084923312e-01	-2.780877903499110e-01	9.255114149507896e-01	
38	6.664699912070000e-01	-4.541807252935628e-02	9.043935621662051e-01	9.741734323286194e-01	8.262437366765052e-02	2.701387606809035e+00	8.691778937997621e-01	9.610615667341834e-01	-2.920136299112454e-01	9.319565524454904e-01	
39	6.514999866490000e-01	-4.665822433729542e-02	8.998791749314201e-01	9.751848003686013e-01	7.897556347844419e-02	2.689633772100887e+00	8.631088290738433e-01	9.591385745087624e-01	-3.055606493887426e-01	9.382478088371089e-01	
40	6.363800168040000e-01	-4.785265849113055e-02	8.954836935125234e-01	9.760841571658779e-01	7.528740326736516e-02	2.678173538071028e+00	8.572156067885008e-01	9.572654566450940e-01	-3.187151634185249e-01	9.443596645639037e-01	
41	6.211299896240000e-01	-4.899841188345117e-02	8.912164504232213e-01	9.769049332575214e-01	7.156502528091198e-02	2.667041250456569e+00	8.515007256565378e-01	9.554364994633762e-01	-3.314715945166568e-01	9.503124026228916e-01	
42	6.057599782940000e-01	-5.009356698714890e-02	8.870590940052991e-01	9.776219608653074e-01	6.782670200174065e-02	2.656180014454425e+00	8.459486272694415e-01	9.536553235137546e-01	-3.438646712735680e-01	9.560957480430143e-01	
43	5.902799963950000e-01	-5.113640761251829e-02	8.830232786209835e-01	9.782710058165648e-01	6.407321610080710e-02	2.645631099480323e+00	8.405640591768789e-01	9.519160814079409e-01	-3.558837964801810e-01	9.617300816164501e-01	
44	5.747100114820000e-01	-5.212478191117140e-02	8.791211487793960e-01	9.788199718030490e-01	6.031272004065907e-02	2.635415787548730e+00	8.353736804128692e-01	9.502372699971247e-01	-3.674694633641313e-01	9.671569104039174e-01	
45	5.590599775310000e-01	-5.305742278794188e-02	8.754058349472873e-01	9.793067749329097e-01	5.653515502488335e-02	2.625685336796063e+00	8.304359877083298e-01	9.486297149919442e-01	-3.784910988653352e-01	9.723428633616539e-01	
46	5.433599948880000e-01	-5.393210346059647e-02	8.718773614575138e-01	9.797082877650843e-01	5.274252753407838e-02	2.616431444985991e+00	8.257593889199406e-01	9.471049776307098e-01	-3.889299354465612e-01	9.772523628948137e-01	
47	5.276100039480000e-01	-5.474850705684695e-02	8.684796151193314e-01	9.800754511787627e-01	4.894370925683816e-02	2.607521621112427e+00	8.212548248859085e-01	9.456236054234458e-01	-3.989847658796685e-01	9.820137657394857e-01	
48	5.118399858470000e-01	-5.550483834591729e-02	8.650602489157534e-01	9.803805227239902e-01	4.516270750420507e-02	2.598545055727808e+00	8.167316508637202e-01	9.441326796456005e-01	-4.090811364649102e-01	9.867976591470030e-01	
49	4.960500001910000e-01	-5.620089949767616e-02	8.615815536041702e-01	9.806636164263133e-01	4.140752633336423e-02	2.589415461458265e+00	8.121272945004760e-01	9.426006059474965e-01	-4.193587176328660e-01	9.917052104423277e-01	
50	4.802699983120000e-01	-5.683518801653593e-02	8.582186157963255e-01	9.808641429542910e-01	3.764479229008599e-02	2.580573836492080e+00	8.076919681573078e-01	9.411261341702141e-01	-4.292589996488665e-01	9.964203943663332e-01	
51	4.645099937920000e-01	-5.740715836726812e-02	8.553240521736035e-01	9.810041522505720e-01	3.381747367758264e-02	2.572954094802023e+00	8.038839239584207e-01	9.398589013316535e-01	-4.377590983070967e-01	1.000466854438221e+00	
52	4.487800002100000e-01	-5.791619740345855e-02	8.530450658413143e-01	9.810662974932952e-01	2.990066717627494e-02	2.566935881022316e+00	8.009046607474068e-01	9.388773147143360e-01	-4.444092394031097e-01	1.003597459644167e+00	
53	4.331099987030000e-01	-5.836107004420307e-02	8.511358693987786e-01	9.811062603159019e-01	2.587800787310978e-02	2.561889292329506e+00	7.984136721527604e-01	9.380566615254274e-01	-4.499694818018742e-01	1.006212293813117e+00	
54	4.174999892710000e-01	-5.874141482304360e-02	8.489603355810895e-01	9.811461176836607e-01	2.177877416300333e-02	2.556148836592959e+00	7.955650664543953e-01	9.371051074015767e-01	-4.563279766642963e-01	1.009241465935816e+00	
55	4.019699990750000e-01	-5.905620771048682e-02	8.457759885511875e-01	9.812247148411967e-01	1.764816166182662e-02	2.547777653113956e+00	7.913643737864026e-01	9.356666357270420e-01	-4.657045227982086e-01	1.013815137088584e+00	
56	3.865399956700000e-01	-5.930444122232412e-02	8.410591126689460e-01	9.812714218636366e-01	1.353601399977629e-02	2.535382103745056e+00	7.851375885783701e-01	9.335105901021404e-01	-4.796035969232810e-01	1.020658140130450e+00	
57	3.712300062180000e-01	-5.948511948006515e-02	8.349239170864808e-01	9.812064461723605e-01	9.434107474039517e-03	2.519244875460819e+00	7.770529602183033e-01	9.306871492313674e-01	-4.976496423698588e-01	1.029597993155738e+00	
58	3.560400009160000e-01	-5.959736733449661e-02	8.282348065582555e-01	9.808918375648099e-01	5.236249170222361e-03	2.501594935616599e+00	7.682941491169077e-01	9.276284249747579e-01	-5.172005600069024e-01	1.039256594311644e+00	
59	3.409900069240000e-01	-5.963995722407643e-02	8.222675188508213e-01	9.804002499540684e-01	8.023601533038068e-04	2.485799318250267e+00	7.605307786048835e-01	9.249189116308288e-01	-5.345295120426707e-01	1.047790788376286e+00	
60	3.261100053790000e-01	-5.961173196709824e-02	8.179398506946814e-01	9.798968425500364e-01	-3.906119849292781e-03	2.474308971507837e+00	7.549353999615636e-01	9.229717800402956e-01	-5.470191965143670e-01	1.053911665710545e+00	
61	3.113999962810000e-01	-5.951150311297583e-02	8.154622913031985e-01	9.794846574727883e-01	-8.866753685620890e-03	2.467701350904067e+00	7.517615504394388e-01	9.218838914525911e-01	-5.541036820548241e-01	1.057327230817822e+00	
62	2.968699932100000e-01	-5.933789910530505e-02	8.145601160618436e-01	9.792392625972175e-01	-1.406613376460329e-02	2.465279979665803e+00	7.506211126496891e-01	9.215048685156838e-01	-5.566493021212296e-01	1.058516524314244e+00	
63	2.825500071050000e-01	-5.908982858146717e-02	8.147866281617970e-01	9.790947928698918e-01	-1.949037192155964e-02	2.465854297031441e+00	7.509410740606741e-01	9.216413820570892e-01	-5.559351025431382e-01	1.058088218311516e+00	
64	2.684499919410000e-01	-5.876603289892710e-02	8.158169054771069e-01	9.790505388137667e-01	-2.517616357506669e-02	2.468576647504990e+00	7.522862803247877e-01	9.221263683973734e-01	-5.529324099893131e-01	1.056566201878134e+00	
65	2.545700073240000e-01	-5.836487335292217e-02	8.174414489516734e-01	9.790136869820141e-01	-3.115000017535453e-02	2.472870284816126e+00	7.544063784689513e-01	9.228873571757816e-01	-5.482000480603766e-01	1.054176823867405e+00	
66	2.409400045870000e-01	-5.788555860396236e-02	8.196071122261757e-01	9.790053136963301e-01	-3.746752517503840e-02	2.478607144884674e+00	7.572196050391206e-01	9.238812032540799e-01	-5.419205244662487e-01	1.051054082874357e+00	
67	2.275699973110000e-01	-5.732688855634020e-02	8.222311807739130e-01	9.789524640600874e-01	-4.414483732243731e-02	2.485549833425247e+00	7.606367961683018e-01	9.250887268132593e-01	-5.342928656957548e-01	1.047256494904055e+00	
68	2.144699990750000e-01	-5.668767472831816e-02	8.252287895531943e-01	9.788678492340432e-01	-5.121526750295768e-02	2.493485119957644e+00	7.645361346255526e-01	9.264535414954409e-01	-5.255889852108201e-01	1.042959577995529e+00	
69	2.016600072380000e-01	-5.596735901362196e-02	8.284845752532507e-01	9.786843976528600e-01	-5.869722352071172e-02	2.502092730630147e+00	7.687824365659603e-01	9.279381409496484e-01	-5.161106326652671e-01	1.038279790619180e+00	
70	1.891400069000000e-01	-5.516438993654400e-02	8.320059943911779e-01	9.784144138631394e-01	-6.663466039723435e-02	2.511401732501729e+00	7.733760742107373e-01	9.295318536456664e-01	-5.058569772081757e-01	1.033249220419659e+00	
71	1.769299954180000e-01	-5.427850207737988e-02	8.359402851195852e-01	9.780023743884514e-01	-7.508811231814785e-02	2.521786290412642e+00	7.785241817482116e-01	9.313155444313109e-01	-4.943656657405991e-01	1.027610357325585e+00	
72	1.650400012730000e-01	-5.330901793554148e-02	8.405255081023649e-01	9.774475889072732e-01	-8.412623203917165e-02	2.533879930656580e+00	7.845331018774317e-01	9.333840488061501e-01	-4.809528975950184e-01	1.021059339630845e+00	
73	1.534900069240000e-01	-5.225634424729902e-02	8.458362590659495e-01	9.766695295413981e-01	-9.378070385324358e-02	2.547862533152387e+00	7.915174600480185e-01	9.357809523584214e-01	-4.653628123928159e-01	1.013451919793168e+00	
74	1.422899961470000e-01	-5.112038453046769e-02	8.518068067645232e-01	9.756552774909489e-01	-1.040936455596198e-01	2.563570074321102e+00	7.993817713758760e-01	9.384543126771002e-01	-4.478085460359912e-01	1.004945535982950e+00	
75	1.314399987460000e-01	-4.990006340929386e-02	8.582930941829423e-01	9.742660993194314e-01	-1.151134497784778e-01	2.580592513139492e+00	8.079673367414044e-01	9.413653007549296e-01	-4.286443376307937e-01	9.956560862085245e-01	
76	1.209499984980000e-01	-4.859533176029356e-02	8.653514522298140e-01	9.725222422009970e-01	-1.269477089062464e-01	2.599103013688734e+00	8.173233876932355e-01	9.444987762916203e-01	-4.077602953275993e-01	9.856237424197617e-01	
77	1.108499988910000e-01	-4.720920163349179e-02	8.731508043429201e-01	9.703284475841873e-01	-1.396592649072518e-01	2.619535983872958e+00	8.276824297038782e-01	9.479260920188255e-01	-3.846374336967005e-01	9.746095673693030e-01	
78	1.011300012470000e-01	-4.573969012565884e-02	8.817466683631063e-01	9.674591560417107e-01	-1.533223687217306e-01	2.641991334950907e+00	8.391637372178660e-01	9.517061615619233e-01	-3.590095151386921e-01	9.624092792555242e-01	
79	9.181000292300000e-02	-4.418913140466627e-02	8.911764331990190e-01	9.637590408041230e-01	-1.680566691995612e-01	2.666552144582084e+00	8.518318447619730e-01	9.558509550170531e-01	-3.307324893705959e-01	9.489647482748624e-01	
80	8.290000259900000e-02	-4.255885530112435e-02	9.015498349340244e-01	9.591410351221287e-01	-1.839776858144396e-01	2.693521029118939e+00	8.658173764825403e-01	9.603655204993755e-01	-2.995147846371868e-01	9.342357175632152e-01	
81	7.440000027400000e-02	-4.084842143335089e-02	9.129229484273255e-01	9.533195938107586e-01	-2.011944721231782e-01	2.723006077525866e+00	8.812336281246764e-01	9.652880669094369e-01	-2.651035086502758e-01	9.180673648170002e-01	
82	6.633000075800000e-02	-3.906157836866499e-02	9.254421530573623e-01	9.460361503000289e-01	-2.198588620359207e-01	2.755378523418521e+00	8.982872750671074e-01	9.706574010049749e-01	-2.270373324394925e-01	9.002927943046015e-01	
83	5.869000032500000e-02	-3.719821842098492e-02	9.392213928931242e-01	9.368843127534110e-01	-2.401037965110026e-01	2.790895169740546e+00	9.171713680062022e-01	9.765230806562017e-01	-1.848853392718700e-01	8.806957654719184e-01	
84	5.149000138000000e-02	-3.526054762928892e-02	9.544447344253888e-01	9.253606976673782e-01	-2.620481908234472e-01	2.829993262315986e+00	9.381753597179771e-01	9.829540945425130e-01	-1.380014292009441e-01	8.589748475735609e-01	
85	4.473999887700000e-02	-3.325125906296807e-02	9.713818708813871e-01	9.107515673048768e-01	-2.858121171903114e-01	2.873312120257800e+00	9.617246856964741e-01	9.900583020185973e-01	-8.543596942751325e-02	8.346650093338333e-01	
86	3.844000026600000e-02	-3.117020200253871e-02	9.902556681205513e-01	8.921470446959189e-01	-3.114735600802788e-01	2.921354816849983e+00	9.881961520607129e-01	9.979202178526814e-01	-2.634787486448019e-02	8.073324166055655e-01	
