"PointID"	"x"	"y"	"Conservative_1"	"Conservative_2"	"Conservative_3"	"Conservative_4"	"Pressure"	"Temperature"	"Pressure_Coefficient"	"Mach"
0	9.997500181200000e-01	-3.633566777902571e-05	1.194908068108282e+00	7.156566575054295e-01	1.015203339905727e-01	3.432119384414355e+00	1.285398209555608e+00	1.075729793665705e+00	6.370495749009113e-01	4.929250783480503e-01	
1	9.990000128750000e-01	-1.456765427211489e-04	1.179153435464069e+00	7.376941264305523e-01	1.065181681149829e-01	3.392531958620485e+00	1.262786073403445e+00	1.070926001166644e+00	5.865760567041189e-01	5.162298419833168e-01	
2	9.977599978450000e-01	-3.297398718236796e-04	1.172168719842378e+00	7.504470659197678e-01	1.139283642247260e-01	3.375748067938223e+00	1.251994186071652e+00	1.068100662368817e+00	5.624870224813664e-01	5.295509150484183e-01	
3	9.960200190539999e-01	-6.019175035580346e-04	1.169542805648445e+00	7.550372790011254e-01	1.243788276945578e-01	3.369648915338872e+00	1.247726183649315e+00	1.066849522414463e+00	5.529602313600771e-01	5.353659959442874e-01	
4	9.937800168990000e-01	-9.900633638558088e-04	1.168221247855503e+00	7.547030232418365e-01	1.416157877472708e-01	3.366501981620805e+00	1.245655584587429e+00	1.066283965365356e+00	5.483383584540823e-01	5.379784116691366e-01	
5	9.910500049590000e-01	-1.539433815467212e-03	1.165350264739285e+00	7.547939239387408e-01	1.667051723946641e-01	3.359548515365359e+00	1.241274360214970e+00	1.065151309244067e+00	5.385588397655572e-01	5.431808294817619e-01	
6	9.878399968150000e-01	-2.307720680266293e-03	1.157035595175433e+00	7.588190052601249e-01	1.984373077669881e-01	3.338810222990083e+00	1.229186194247434e+00	1.062358149889988e+00	5.115763264451647e-01	5.558481657309580e-01	
7	9.841300249100000e-01	-3.355709936505438e-03	1.140440333786555e+00	7.711210924633450e-01	2.329826033405255e-01	3.297341217026471e+00	1.205136823035694e+00	1.056729394193145e+00	4.578946942761017e-01	5.807287077929417e-01	
8	9.799500107769999e-01	-4.699082413798160e-03	1.113037240993660e+00	7.942362204302968e-01	2.644410776017709e-01	3.228717949508844e+00	1.165572209206326e+00	1.047199650000718e+00	3.695808241212636e-01	6.211408278428612e-01	
9	9.752799868580000e-01	-6.311188121462418e-03	1.074314013951567e+00	8.280207752773430e-01	2.848389774358221e-01	3.131537678450354e+00	1.109872514287864e+00	1.033098795952130e+00	2.452511479639818e-01	6.777369632721392e-01	
10	9.701499938960000e-01	-8.084110617214839e-03	1.024614807111171e+00	8.691065897981902e-01	2.874175302300085e-01	3.006258408218458e+00	1.038938461570471e+00	1.013979550519756e+00	8.691620886265820e-02	7.498443625977331e-01	
11	9.645400047300000e-01	-9.881198078289339e-03	9.626763513816632e-01	9.104084353367559e-01	2.707661801843513e-01	2.848635579591796e+00	9.520272025616895e-01	9.889379760864703e-01	-1.070821371390860e-01	8.385180510909219e-01	
12	9.584699869160000e-01	-1.154860986819372e-02	9.066335237287969e-01	9.416145900679466e-01	2.329246502110938e-01	2.704972866310185e+00	8.744318691282207e-01	9.644821708465651e-01	-2.802860064102217e-01	9.207187306171795e-01	
13	9.519400000570000e-01	-1.298330058819609e-02	8.845311316640306e-01	9.619496669740437e-01	1.855501315452567e-01	2.649398298712859e+00	8.427458128373108e-01	9.527599229344130e-01	-3.510138106310028e-01	9.589943863087271e-01	
14	9.449599981310000e-01	-1.415558387462154e-02	8.954532078578441e-01	9.712514653889465e-01	1.434036879080571e-01	2.678964966578573e+00	8.562996895324009e-01	9.562751934083653e-01	-3.207596215794624e-01	9.475808712165054e-01	
15	9.375399947170000e-01	-1.511454201491810e-02	9.232785749189558e-01	9.690411386155071e-01	1.138434939386397e-01	2.750958236620604e+00	8.941614467027369e-01	9.684633338114939e-01	-2.362467707528194e-01	9.075704585693005e-01	
16	9.296900033950000e-01	-1.596230572110728e-02	9.533911829904641e-01	9.607796031478234e-01	1.003234537965244e-01	2.828400857865442e+00	9.356039195804500e-01	9.813431635121470e-01	-1.437412509364956e-01	8.644362666270163e-01	
17	9.214000105860000e-01	-1.681730037171508e-02	9.754452559646239e-01	9.517273692562985e-01	1.007512450359641e-01	2.884909385854405e+00	9.661652503935236e-01	9.904863901747895e-01	-7.552399465731333e-02	8.331848064477830e-01	
18	9.126999974250000e-01	-1.777332858331904e-02	9.862566882316901e-01	9.449324402246243e-01	1.093022832339104e-01	2.912320704551469e+00	9.814376517430666e-01	9.951138110938811e-01	-4.143381307351199e-02	8.171401927813864e-01	
19	9.035800099370001e-01	-1.888730188764725e-02	9.866611699743241e-01	9.425494495488889e-01	1.206842523458685e-01	2.913135393896173e+00	9.822198634993052e-01	9.954986507930232e-01	-3.968780468905082e-02	8.157984245478038e-01	
20	8.940600156780000e-01	-2.016727537018813e-02	9.783723545453481e-01	9.446081080141984e-01	1.308525868630333e-01	2.891809192036714e+00	9.708216788708630e-01	9.922824110478942e-01	-6.513018109182363e-02	8.269767125345993e-01	
21	8.841500282290000e-01	-2.158490772506901e-02	9.635567514328096e-01	9.499236819029609e-01	1.371925029626279e-01	2.853815748221415e+00	9.503228682629540e-01	9.862655903244135e-01	-1.108864547701920e-01	8.476825339636249e-01	
22	8.738499879840000e-01	-2.309014068910018e-02	9.446087822403481e-01	9.567596073123997e-01	1.383488589220791e-01	2.805141152142180e+00	9.241905568932908e-01	9.783844637791417e-01	-1.692175069346188e-01	8.744313162417229e-01	
23	8.631799817090000e-01	-2.462130954676296e-02	9.233595649088927e-01	9.637570480086217e-01	1.342478464480069e-01	2.750376784952314e+00	8.950626490826871e-01	9.693543913968146e-01	-2.342351582975735e-01	9.046164080786269e-01	
24	8.521599769590000e-01	-2.611996328281143e-02	8.996902903302738e-01	9.700436755036356e-01	1.262511416424148e-01	2.689082664722302e+00	8.629100670001960e-01	9.591190171491395e-01	-3.060043147317054e-01	9.383080449824346e-01	
25	8.407700061800000e-01	-2.754347682437612e-02	8.736595369491950e-01	9.746647404891107e-01	1.159926241981336e-01	2.621265941438089e+00	8.279569280828990e-01	9.476883077063537e-01	-3.840247141006719e-01	9.753715867011353e-01	
26	8.290500044819999e-01	-2.885548572825303e-02	8.503346377637504e-01	9.768900151986895e-01	1.038379540708221e-01	2.560091366350038e+00	7.970444002389857e-01	9.373302754490753e-01	-4.530258923236926e-01	1.008521456888648e+00	
27	8.170099854470000e-01	-3.003846115040778e-02	8.363249183466329e-01	9.778049591232348e-01	9.068489979914321e-02	2.523168281066708e+00	7.786568719189458e-01	9.310458828110809e-01	-4.940694823237816e-01	1.028460003170566e+00	
28	8.046399950980000e-01	-3.108930014909260e-02	8.333182811603572e-01	9.784141560370349e-01	7.788050531814160e-02	2.515118132945322e+00	7.748367647916655e-01	9.298209127402572e-01	-5.025965071614609e-01	1.032332595646935e+00	
29	7.919700145720000e-01	-3.201127159251545e-02	8.385622676665744e-01	9.789912601228740e-01	6.632202837271260e-02	2.528781958074168e+00	7.818762884888192e-01	9.324009899282825e-01	-4.868832846231715e-01	1.024170865809763e+00	
30	7.790099978450000e-01	-3.281648142289492e-02	8.481971317946433e-01	9.794405253047920e-01	5.645773811266770e-02	2.554033388070629e+00	7.946634675846429e-01	9.368853510542626e-01	-4.583404741414221e-01	1.009937146685999e+00	
31	7.657799720760000e-01	-3.352012225991960e-02	8.591959272677763e-01	9.795615509161202e-01	4.831056912808344e-02	2.582872450416528e+00	8.092478389725616e-01	9.418664745606414e-01	-4.257860737219608e-01	9.940503068935026e-01	
32	7.522799968720000e-01	-3.413942100210215e-02	8.698688193410510e-01	9.794490417783941e-01	4.179493107763226e-02	2.610875262145683e+00	8.233817886396427e-01	9.465585733529072e-01	-3.942370789293689e-01	9.790060123553667e-01	
33	7.385200262070000e-01	-3.468985981638343e-02	8.793106085100435e-01	9.789845607283569e-01	3.663933724118482e-02	2.635592957194606e+00	8.359404395224468e-01	9.506770775106587e-01	-3.662043760659670e-01	9.657327180417771e-01	
34	7.245299816130000e-01	-3.518389334977513e-02	8.873803697077126e-01	9.783689739349934e-01	3.251628547177485e-02	2.656691922954714e+00	8.467010296475235e-01	9.541579446099444e-01	-3.421852016796351e-01	9.544615225575100e-01	
35	7.103199958800001e-01	-3.563187238163451e-02	8.941632322569769e-01	9.776334689732838e-01	2.915032936469045e-02	2.674386433532753e+00	8.557853769959796e-01	9.570795869517841e-01	-3.219076406339742e-01	9.449616453919383e-01	
36	6.958900094030001e-01	-3.604136029573381e-02	8.998945191679329e-01	9.768846491946419e-01	2.630356095558544e-02	2.689317947388507e+00	8.634810823719725e-01	9.595358833503852e-01	-3.047297268482757e-01	9.369457091701380e-01	
37	6.812700033190000e-01	-3.641645688715029e-02	9.048560933933271e-01	9.761716718964191e-01	2.379406126554777e-02	2.702238667768586e+00	8.701487423351236e-01	9.616432366299860e-01	-2.898465572876705e-01	9.300464789287518e-01	
38	6.664699912070000e-01	-3.675997057024367e-02	9.092636725637299e-01	9.754111506692147e-01	2.150512393931353e-02	2.713688916382299e+00	8.760996920012463e-01	9.635265527886148e-01	-2.765631874972181e-01	9.238629264116391e-01	
39	6.514999866490000e-01	-3.707356885227745e-02	9.133763182247492e-01	9.746639042248371e-01	1.937191314330814e-02	2.724371681650522e+00	8.816537224725931e-01	9.652688655057180e-01	-2.641657980522475e-01	9.181269430930733e-01	
40	6.363800168040000e-01	-3.735838786717453e-02	9.173295624248654e-01	9.738450491358936e-01	1.738415052473476e-02	2.734619460911232e+00	8.870134192082603e-01	9.669517429085493e-01	-2.522021892672762e-01	9.125722074046485e-01	
41	6.211299896240000e-01	-3.761595373063917e-02	9.212603099972974e-01	9.729942969546600e-01	1.557213721958776e-02	2.744807764736914e+00	8.923437743881997e-01	9.686119815482094e-01	-2.403040750263400e-01	9.070779503639924e-01	
42	6.057599782940000e-01	-3.784878237626903e-02	9.251861202777720e-01	9.720540190972069e-01	1.398553863250370e-02	2.754965868921247e+00	8.976848366357303e-01	9.702748635768718e-01	-2.283820610809592e-01	9.015604028269179e-01	
43	5.902799963950000e-01	-3.806042622872254e-02	9.291149501237295e-01	9.710745374078051e-01	1.268545571945914e-02	2.765130173985822e+00	9.030316192479007e-01	9.719266912319566e-01	-2.164472784645075e-01	8.960647624587078e-01	
44	5.747100114820000e-01	-3.825540595566745e-02	9.329649455171729e-01	9.700348741953577e-01	1.172962519531686e-02	2.775076199240706e+00	9.082854418394224e-01	9.735472336915405e-01	-2.047199958941464e-01	8.906585441283422e-01	
45	5.590599775310000e-01	-3.843933770948691e-02	9.366612090596739e-01	9.690028884637731e-01	1.116073932742319e-02	2.784623861983463e+00	9.133306910455639e-01	9.750918285198000e-01	-1.934582789161521e-01	8.854918435279683e-01	
46	5.433599948880000e-01	-3.861826607335596e-02	9.400810625845787e-01	9.679835312176890e-01	1.100173740454217e-02	2.793446270174536e+00	9.180099233313522e-01	9.765220892839329e-01	-1.830135639925174e-01	8.806952609766940e-01	
47	5.276100039480000e-01	-3.879884865114789e-02	9.431301240772045e-01	9.670545746798396e-01	1.124839824634168e-02	2.801312825754695e+00	9.221811154105140e-01	9.777877854477529e-01	-1.737028673872456e-01	8.764404680702839e-01	
48	5.118399858470000e-01	-3.898721677837700e-02	9.456923758216492e-01	9.662322931516046e-01	1.187829273091360e-02	2.807916613929788e+00	9.256931410708473e-01	9.788522829811062e-01	-1.658635243954301e-01	8.728545460581434e-01	
49	4.960500001910000e-01	-3.918924290555683e-02	9.476852556508869e-01	9.655841331615519e-01	1.283692775678420e-02	2.813054764013748e+00	9.284229157790490e-01	9.796743277823733e-01	-1.597702772789085e-01	8.700806113682035e-01	
50	4.802699983120000e-01	-3.940942263425463e-02	9.490156603936648e-01	9.651224636399616e-01	1.406120733650803e-02	2.816480239558592e+00	9.302499012198694e-01	9.802260806043908e-01	-1.556921847770772e-01	8.682164068669909e-01	
51	4.645099937920000e-01	-3.965117214588030e-02	9.496336197616745e-01	9.649100623716459e-01	1.546168008315132e-02	2.818076180825074e+00	9.310936733294277e-01	9.804767375054609e-01	-1.538087648896703e-01	8.673688837959512e-01	
52	4.487800002100000e-01	-3.991638460345664e-02	9.494884684078990e-01	9.649411850949274e-01	1.695023814280001e-02	2.817704565986316e+00	9.308922290996232e-01	9.804144653389443e-01	-1.542584171883410e-01	8.675794764338485e-01	
53	4.331099987030000e-01	-4.020492558201995e-02	9.485634307624787e-01	9.652405343259062e-01	1.842468921245199e-02	2.815327481163295e+00	9.296172479855948e-01	9.800264461369185e-01	-1.571043571750117e-01	8.688911291344736e-01	
54	4.174999892710000e-01	-4.051548600425434e-02	9.468431932947186e-01	9.657945287535017e-01	1.978750326251902e-02	2.810900673534573e+00	9.272525278862187e-01	9.793094933276858e-01	-1.623827502539761e-01	8.713122345590930e-01	
55	4.019699990750000e-01	-4.084476025281950e-02	9.443370012848801e-01	9.666034944053070e-01	2.094305525502835e-02	2.804450433442379e+00	9.238082786639169e-01	9.782612323852277e-01	-1.700708065537569e-01	8.748464406066784e-01	
56	3.865399956700000e-01	-4.118791118066600e-02	9.410564524927616e-01	9.676307972127645e-01	2.180370803801889e-02	2.795999427166198e+00	9.193076209922879e-01	9.768889194236297e-01	-1.801169174279288e-01	8.794630999572748e-01	
57	3.712300062180000e-01	-4.153877652467648e-02	9.370328075374791e-01	9.688515052453353e-01	2.228649327234471e-02	2.785626983380411e+00	9.137946472185688e-01	9.752002703299366e-01	-1.924226624585517e-01	8.851285877444132e-01	
58	3.560400009160000e-01	-4.189059042901953e-02	9.323086913753992e-01	9.702158148930434e-01	2.232533756590827e-02	2.773436074857217e+00	9.073346641703337e-01	9.732127057957358e-01	-2.068422674769337e-01	8.917757551318262e-01	
59	3.409900069240000e-01	-4.223530871944048e-02	9.269316455451960e-01	9.716660809390912e-01	2.185367133275672e-02	2.759540715853581e+00	9.000013534198880e-01	9.709468413828205e-01	-2.232112646877501e-01	8.993265258512835e-01	
60	3.261100053790000e-01	-4.256411451584213e-02	9.209756267995892e-01	9.731778808031297e-01	2.081750263302258e-02	2.744135373729697e+00	8.918922316889155e-01	9.684211022915570e-01	-2.413119828372422e-01	9.077103621404159e-01	
61	3.113999962810000e-01	-4.286857302169483e-02	9.144536339380287e-01	9.746770246398392e-01	1.917969597824754e-02	2.727237451412436e+00	8.830412135006088e-01	9.656489741287982e-01	-2.610687198647125e-01	9.168735566348466e-01	
62	2.968699932100000e-01	-4.313990888633622e-02	9.073595916898374e-01	9.761729109751229e-01	1.693180426256746e-02	2.708839606644438e+00	8.734316575370732e-01	9.626080613865803e-01	-2.825186215690331e-01	9.268807691614018e-01	
63	2.825500071050000e-01	-4.336912044054986e-02	8.996605275645767e-01	9.775636340551211e-01	1.408084376741644e-02	2.688829858052679e+00	8.630453664506688e-01	9.593011363819344e-01	-3.057023070297573e-01	9.377129671422025e-01	
64	2.684499919410000e-01	-4.354791613140605e-02	8.915869393031370e-01	9.787981532405741e-01	1.059435134091920e-02	2.667809810250760e+00	8.521907475743247e-01	9.558134041761489e-01	-3.299313670215968e-01	9.490832431062676e-01	
65	2.545700073240000e-01	-4.366845316509282e-02	8.835128970080504e-01	9.797055445418151e-01	6.359476454896261e-03	2.646719639414124e+00	8.414044634807694e-01	9.523397636074382e-01	-3.540078940161399e-01	9.603550955631018e-01	
66	2.409400045870000e-01	-4.372310497456554e-02	8.755925886571903e-01	9.803733957828580e-01	1.276304692672068e-03	2.625995424375794e+00	8.308591657515567e-01	9.489106880470098e-01	-3.775465050188466e-01	9.714336015866587e-01	
67	2.275699973110000e-01	-4.370507698699482e-02	8.670503131521365e-01	9.808757764353196e-01	-4.565679985380464e-03	2.603616553298772e+00	8.195129873338418e-01	9.451735094293733e-01	-4.028727961298174e-01	9.834553025899443e-01	
68	2.144699990750000e-01	-4.360813994405668e-02	8.564947795703352e-01	9.813806630658376e-01	-1.084023626688616e-02	2.575984854046188e+00	8.054712591836626e-01	9.404275173606212e-01	-4.342159393221818e-01	9.986483463446465e-01	
69	2.016600072380000e-01	-4.342681156828648e-02	8.432586975732500e-01	9.814998600426672e-01	-1.732780849545854e-02	2.541251294550717e+00	7.879485370380609e-01	9.344090245444704e-01	-4.733291583971855e-01	1.017804935092500e+00	
70	1.891400069000000e-01	-4.315597246671702e-02	8.295581488374832e-01	9.808740359671989e-01	-2.446517135770013e-02	2.505151632468775e+00	7.699581969045317e-01	9.281545820308404e-01	-5.134861676238132e-01	1.037593587320217e+00	
71	1.769299954180000e-01	-4.279143929155089e-02	8.191285562484754e-01	9.796808980731769e-01	-3.268252763819364e-02	2.477524888905221e+00	7.564087315337502e-01	9.234310362686227e-01	-5.437305099693076e-01	1.052465466001900e+00	
72	1.650400012730000e-01	-4.232950928358290e-02	8.140764686153998e-01	9.786513203392417e-01	-4.197000552888199e-02	2.464085727906062e+00	7.499021639833133e-01	9.211691934281856e-01	-5.582540982515327e-01	1.059566133086884e+00	
73	1.534900069240000e-01	-4.176760046621079e-02	8.138945040721591e-01	9.779021227574687e-01	-5.212538354744891e-02	2.463520666264528e+00	7.497488259996230e-01	9.211867413385939e-01	-5.585963705365559e-01	1.059511093401232e+00	
74	1.422899961470000e-01	-4.110351511480109e-02	8.170927942501791e-01	9.774646499810122e-01	-6.308470352408643e-02	2.471952202408439e+00	7.539441944737701e-01	9.227155101344906e-01	-5.492317087639059e-01	1.054713137437168e+00	
75	1.314399987460000e-01	-4.033495386586275e-02	8.223612434374549e-01	9.769756697197834e-01	-7.485970622413843e-02	2.485850814173744e+00	7.608455099782220e-01	9.251962152276315e-01	-5.338269866557546e-01	1.046914860514168e+00	
76	1.209499984980000e-01	-3.946069714617031e-02	8.292223434039440e-01	9.764095835037754e-01	-8.757688438958944e-02	2.503984601821561e+00	7.697994630006130e-01	9.283390264673755e-01	-5.138404843736317e-01	1.037011640298486e+00	
77	1.108499988910000e-01	-3.848229868589049e-02	8.375681477620673e-01	9.755633862307487e-01	-1.012701399826352e-01	2.526029439332095e+00	7.807040046394742e-01	9.321080400746727e-01	-4.894999896440308e-01	1.025098562887122e+00	
78	1.011300012470000e-01	-3.739850677453679e-02	8.472495616367413e-01	9.741287740185788e-01	-1.159747959986429e-01	2.551523275194563e+00	7.934325571459692e-01	9.364803395273447e-01	-4.610880420848903e-01	1.011225283629013e+00	
79	9.181000292300000e-02	-3.621178609403153e-02	8.581743879794995e-01	9.719409878965277e-01	-1.317649749153599e-01	2.580208131293417e+00	8.078791033274226e-01	9.413926990171627e-01	-4.288412872155745e-01	9.955649988891133e-01	
80	8.290000259900000e-02	-3.492467180713699e-02	8.703604050376221e-01	9.688904805008566e-01	-1.486776093718737e-01	2.612137359451438e+00	8.240604799763118e-01	9.468037323465918e-01	-3.927221429100183e-01	9.782177315321149e-01	
81	7.440000027400000e-02	-3.353902829977626e-02	8.837733089101490e-01	9.646602609944935e-01	-1.667308844745220e-01	2.647166648266859e+00	8.419855660857994e-01	9.527166724735314e-01	-3.527107899870549e-01	9.591344891269808e-01	
82	6.633000075800000e-02	-3.206090740021449e-02	8.984759604199591e-01	9.590312521494565e-01	-1.859748731034073e-01	2.685450759111485e+00	8.617477761056002e-01	9.591216839043846e-01	-3.085987140499997e-01	9.382993314358866e-01	
83	5.869000032500000e-02	-3.049406675685971e-02	9.144666932901324e-01	9.516306511392821e-01	-2.064108522583292e-01	2.726935221162293e+00	8.833950022553884e-01	9.660220637200553e-01	-2.602790128227939e-01	9.156426078118621e-01	
84	5.149000138000000e-02	-2.884500447607498e-02	9.318067097115927e-01	9.420570365954628e-01	-2.280332480653190e-01	2.771738474198224e+00	9.070504320650599e-01	9.734319603105293e-01	-2.074767141404914e-01	8.910435898918333e-01	
85	4.473999887700000e-02	-2.712148317067611e-02	9.506062681225201e-01	9.297753787023489e-01	-2.508432440414525e-01	2.820091740563591e+00	9.329181452497539e-01	9.813927979796506e-01	-1.497362829246564e-01	8.642681233321443e-01	
86	3.844000026600000e-02	-2.532959258721698e-02	9.708986198018138e-01	9.141483986239241e-01	-2.748345990352005e-01	2.872019368732817e+00	9.611050702106055e-01	9.899129019328432e-01	-8.681903970846978e-02	8.351621117595084e-01	
