"PointID"	"x"	"y"	"Conservative_1"	"Conservative_2"	"Conservative_3"	"Conservative_4"	"Pressure"	"Temperature"	"Pressure_Coefficient"	"Mach"
0	9.997500181200000e-01	-3.632896519016437e-05	1.463816862557718e+87	-5.859187263683086e+90	7.349656573499782e+90	3.034724644223657e+94	6.805427948360387e+91	4.649097931874692e+04	1.519068738473301e+92	2.516877556940456e+01	
1	9.990000128750000e-01	-1.452537504052920e-04	3.287513327629253e+86	-1.037273778096334e+90	1.456559792536285e+90	4.986606413818021e+93	4.940128356080163e+91	1.502694548661396e+05	1.102707222339322e+92	1.185874161751540e+01	
2	9.977599978450000e-01	-3.251111630156300e-04	6.885921974823974e+84	-2.532267464226948e+88	2.988987645658752e+88	1.155193752005248e+92	1.634414185925910e+90	2.373558968430937e+05	3.648245950727478e+90	9.869098688991579e+00	
3	9.960200190539999e-01	-5.769983605901485e-04	2.587001658861175e+87	-9.849066245805986e+90	1.134286664590096e+91	4.485963742276503e+94	4.978105193079248e+92	1.924275995737344e+05	1.111184194883761e+93	1.118761305107633e+01	
4	9.937800168990000e-01	-9.004365425509819e-04	3.054625434410774e+87	-8.920217549896379e+90	1.018748209237994e+91	4.120705092048772e+94	4.477743054654681e+93	1.465889403071255e+06	9.994962175568485e+93	3.094381674987464e+00	
5	9.910500049590000e-01	-1.293363843462116e-03	1.516292895427887e+87	-4.393644937817521e+90	4.250445752285628e+90	2.047472107277397e+94	3.260708183602098e+93	2.150447445499604e+06	7.278366481254682e+93	2.323551844989195e+00	
6	9.878399968150000e-01	-1.753609743384430e-03	7.248313322655994e+86	-1.870946400485028e+90	1.371990761795135e+90	8.500143426238062e+93	1.914801740854020e+93	2.641720432902563e+06	4.274111028692010e+93	1.664407565114051e+00	
7	9.841300249100000e-01	-2.283176811071472e-03	3.063457453298110e+86	-7.764581865575476e+89	1.153586631247976e+89	3.245819327049568e+93	8.960404811850834e+92	2.924932024828381e+06	2.000090359788133e+93	1.266267041042479e+00	
8	9.799500107769999e-01	-2.876826092032643e-03	4.913601619759964e+85	-1.158175830771903e+89	-4.227300436064368e+88	3.836369015467113e+92	9.158275460831746e+91	1.863862024141701e+06	2.044257915364229e+92	1.553321064684215e+00	
9	9.752799868580000e-01	-3.536324145770189e-03	2.589166604898808e+85	-6.407004960554771e+88	-2.238590958863186e+88	1.840108064489544e+92	3.802453257415826e+91	1.468601228758872e+06	8.487618878160327e+91	1.828061206534192e+00	
10	9.701499938960000e-01	-4.256268552403566e-03	1.295127499351289e+85	-3.562490054507002e+88	-1.041202500938159e+88	9.676517952339913e+91	1.743335843817248e+91	1.346072757076396e+06	3.891374651377786e+91	2.087574093938961e+00	
11	9.645400047300000e-01	-5.038225493362627e-03	7.590055102075543e+84	-2.236715630477663e+88	-5.888529064305353e+87	6.046990802231151e+91	1.009150544915975e+91	1.329569458118976e+06	2.252568180616015e+91	2.233561946948512e+00	
12	9.584699869160000e-01	-5.878077433056352e-03	4.680122692502974e+84	-1.485031460026314e+88	-3.592515054632900e+87	4.023719519688793e+91	6.119156351694732e+90	1.307477763669942e+06	1.365883114217574e+91	2.412944719145903e+00	
13	9.519400000570000e-01	-6.774428848839826e-03	3.203467266470089e+84	-1.084213991626376e+88	-2.567573643193652e+87	2.921308914630250e+91	3.934606602532068e+90	1.228233746514171e+06	8.782604023509079e+90	2.652398674391332e+00	
14	9.449599981310000e-01	-7.724467125531491e-03	1.964909936029611e+84	-7.072144054388911e+87	-1.442475428009253e+87	1.925037922467301e+91	2.397521179311916e+90	1.220168484748191e+06	5.351609775249812e+90	2.810511983180407e+00	
15	9.375399947170000e-01	-8.725349486403867e-03	1.483107922746879e+84	-5.760999597338602e+87	-1.278214969578637e+87	1.621809607722077e+91	1.791295629302499e+90	1.207798570710095e+06	3.998427743978792e+90	3.059840230580915e+00	
16	9.296900033950000e-01	-9.774221272349531e-03	9.716492041900852e+83	-3.898091264163472e+87	-6.724681694142662e+86	1.089298524116529e+91	1.136416705789256e+90	1.169575090360428e+06	2.536644432565304e+90	3.181504442985941e+00	
17	9.214000105860000e-01	-1.087086069705918e-02	8.014199698395153e+83	-3.405622679233840e+87	-6.680920633074444e+86	9.800341271762678e+90	9.143185127351891e+89	1.140873134117536e+06	2.040889537355333e+90	3.426522341428398e+00	
18	9.126999974250000e-01	-1.200973104171110e-02	5.836277684826207e+83	-2.546978069829227e+87	-4.051016556124875e+86	7.303469464781954e+90	6.421252152288950e+89	1.100230746214085e+06	1.433315212564498e+90	3.560477958232323e+00	
19	9.035800099370001e-01	-1.319055953446835e-02	4.783698390239466e+83	-2.163260665540433e+87	-3.557457509215066e+86	6.317733777283033e+90	5.176642558499358e+89	1.082142337623469e+06	1.155500571093607e+90	3.723344796798842e+00	
20	8.940600156780000e-01	-1.440916392228702e-02	3.867298731598689e+83	-1.794591800030702e+87	-2.766121725359261e+86	5.268657018846162e+90	4.023584173381682e+89	1.040412042779635e+06	8.981214672726969e+89	3.890361198421856e+00	
21	8.841500282290000e-01	-1.566269158090452e-02	3.200205805656822e+83	-1.526004415488622e+87	-2.226328975815417e+86	4.532798131243164e+90	3.268055416900312e+89	1.021201639945643e+06	7.294766555581054e+89	4.030245671293347e+00	
22	8.738499879840000e-01	-1.694956337677533e-02	2.636819027353798e+83	-1.278975521881978e+87	-1.822731909384825e+86	3.823568728119370e+90	2.635067857353066e+89	9.993358778199926e+05	5.881847895877380e+89	4.142173960955870e+00	
23	8.631799817090000e-01	-1.826569132102762e-02	2.327764604990284e+83	-1.163935950429535e+87	-1.685346010755960e+86	3.531534981219575e+90	2.242199379543057e+89	9.632414612440661e+05	5.004909329337181e+89	4.350749765929932e+00	
24	8.521599769590000e-01	-1.960709133914372e-02	1.844259050222406e+83	-9.250705945707049e+86	-1.198831497763741e+86	2.802857494038265e+90	1.775363232332335e+89	9.626430907947764e+05	3.962864357884677e+89	4.356852684596089e+00	
25	8.407700061800000e-01	-2.097463226217677e-02	1.759262127021105e+83	-9.152823589530474e+86	-1.325330868280290e+86	2.828742003003930e+90	1.591495851979161e+89	9.046382727933690e+05	3.552446098167771e+89	4.671204884342650e+00	
26	8.290500044819999e-01	-2.236196298315981e-02	1.312486399013141e+83	-6.754695433597283e+86	-7.937160989849844e+85	2.066051617949749e+90	1.215615997836334e+89	9.261932152213969e+05	2.713428566598961e+89	4.550655091390603e+00	
27	8.170099854470000e-01	-2.376642068849115e-02	1.398997247668414e+83	-7.541662196522179e+86	-1.106470376079173e+86	2.368646694051724e+90	1.168502475265738e+89	8.352428692859680e+05	2.608264453718166e+89	5.038535621248237e+00	
28	8.046399950980000e-01	-2.518763605296113e-02	9.482911899625252e+82	-4.932738689671980e+86	-5.424229259865845e+85	1.504527492346278e+90	8.243184690768826e+88	8.692672438615174e+05	1.839996582760899e+89	4.743683715224910e+00	
29	7.919700145720000e-01	-2.662062628442961e-02	1.072832047802643e+83	-5.995108054752114e+86	-8.858067793519481e+85	1.928998822741112e+90	8.694484687062808e+88	8.104236543707573e+05	1.940733189076520e+89	5.303161488107280e+00	
30	7.790099978450000e-01	-2.806276676215449e-02	6.249949501825077e+82	-3.312550920972404e+86	-2.767311569406830e+85	1.031969959638345e+90	5.919876736550188e+88	9.471879308499210e+05	1.321401057265667e+89	4.618640486546226e+00	
31	7.657799720760000e-01	-2.951033727360171e-02	2.028639685931753e+82	-7.748603349567649e+85	2.214265804326682e+85	1.810352449712982e+89	8.387127234160977e+87	4.134360227853265e+05	1.872126614768075e+88	5.221506778225961e+00	
32	7.522799968720000e-01	-3.096181144522562e-02	1.006007461150301e+83	-6.022684196507615e+86	-1.051671988815665e+86	2.000762889241884e+90	5.719458551903299e+88	5.685304307150453e+05	1.276664855335558e+89	6.811931078447496e+00	
33	7.385200262070000e-01	-3.241453277608040e-02	2.890320371896675e+82	-1.561257080878340e+86	-1.331706776407551e+85	4.992497878091571e+89	2.980469341404497e+88	1.031189957481656e+06	6.652833351349323e+88	4.512001519064507e+00	
34	7.245299816130000e-01	-3.386376679305321e-02	6.794635705608724e+82	-4.085249764653896e+86	-6.319001916063891e+85	1.355827678120160e+90	3.932946138542125e+88	5.788310527517498e+05	8.778897630674386e+88	6.758443265833414e+00	
35	7.103199958800001e-01	-3.530689307158652e-02	3.155653120326348e+82	-1.824308268254396e+86	-2.188134635981476e+85	5.988227678042251e+89	2.556515983435090e+88	8.101384676813603e+05	5.706508891596183e+88	5.467226025778489e+00	
36	6.958900094030001e-01	-3.674225211597043e-02	4.181796992006236e+82	-2.513073268320419e+86	-3.921580701944521e+85	8.370483484123901e+89	2.541526181973679e+88	6.077593405016944e+05	5.673049513334104e+88	6.593814219368686e+00	
37	6.812700033190000e-01	-3.816515293304169e-02	3.375176894345053e+82	-2.038568990146719e+86	-3.279170133104757e+85	6.749838844779771e+89	1.736720390421340e+88	5.145568498442650e+05	3.876608014333347e+88	7.207677664567621e+00	
38	6.664699912070000e-01	-3.957289370556494e-02	3.026886287058820e+82	-1.849226108959705e+86	-2.780212975691752e+85	6.177199561054340e+89	1.602987768870978e+88	5.295830820352942e+05	3.578097698372718e+88	7.174910423193775e+00	
39	6.514999866490000e-01	-4.096270419333766e-02	2.016905531014582e+82	-1.245811737626543e+86	-3.003574214005197e+85	4.356409598836208e+89	1.140676695901097e+88	5.655578203146145e+05	2.546153339064948e+88	7.140573117771199e+00	
40	6.363800168040000e-01	-4.233084266562091e-02	2.444724729611415e+82	-1.520949616126279e+86	-1.800750899363891e+85	5.083012631403684e+89	1.142039115347527e+88	4.671442561670542e+05	2.549194453900730e+88	7.746724501677392e+00	
41	6.211299896240000e-01	-4.367359094194759e-02	1.839901957268312e+82	-1.147702819390616e+86	-2.489429959673182e+85	3.985379905549178e+89	9.494775578898483e+87	5.160479090415940e+05	2.119369548861269e+88	7.509465533292824e+00	
42	6.057599782940000e-01	-4.498807223669178e-02	1.598224403457229e+82	-1.004892621063351e+86	-8.981871439352064e+84	3.367580196881915e+89	7.327280049241855e+87	4.584637822693557e+05	1.635553582420057e+88	7.879402197840638e+00	
43	5.902799963950000e-01	-4.627132533375768e-02	1.461781143101247e+82	-9.195176442674197e+85	-1.787471720030886e+85	3.156611204988411e+89	6.210464228088851e+87	4.248559544907674e+05	1.386264336626976e+88	8.308970945228058e+00	
44	5.747100114820000e-01	-4.751950934859488e-02	1.496806821054251e+82	-9.400715441954298e+85	-1.396685595013076e+85	3.213833190207794e+89	7.864164248811965e+87	5.253960723717824e+05	1.755393805538385e+88	7.403359433848776e+00	
45	5.590599775310000e-01	-4.872955796694115e-02	1.221265128020556e+82	-7.726242665206424e+85	-2.022073332819607e+85	2.688080278453169e+89	3.068240924840396e+87	2.512346299294934e+05	6.848752064375884e+87	1.102657942181398e+01	
46	5.433599948880000e-01	-4.989683951066199e-02	1.179719784996254e+82	-7.444239458644943e+85	-1.555745844046674e+85	2.565247384400555e+89	4.557718944822532e+87	3.863391122864827e+05	1.017347978755029e+88	8.765482621412433e+00	
47	5.276100039480000e-01	-5.101897737545535e-02	4.141495530805632e+81	-2.649080686322121e+85	-2.112080490755802e+84	9.039550285700517e+88	2.053432611201597e+87	4.958191059069306e+05	4.583554935717851e+87	7.701730364851056e+00	
48	5.118399858470000e-01	-5.209138375948307e-02	6.619744644071364e+81	-4.206112896954921e+85	-1.180969309852896e+85	1.495253374599205e+89	2.146055056539534e+87	3.241900060996368e+05	4.790301465490030e+87	9.796100636801707e+00	
49	4.960500001910000e-01	-5.311153541819326e-02	3.419227465452905e+81	-2.218469700388183e+85	-1.567483017736213e+84	7.590928477471880e+88	1.432162022074253e+87	4.188554392898664e+05	3.196790227844315e+87	8.493970977711761e+00	
50	4.802699983120000e-01	-5.407492053959814e-02	8.881979477010738e+81	-5.751136665724253e+85	-1.434278240631987e+85	2.044604983407746e+89	2.674070540533052e+87	3.010669578165948e+05	5.968907456546992e+87	1.027899371108562e+01	
51	4.645099937920000e-01	-5.497835513414191e-02	6.851363665073089e+81	-4.444386176262558e+85	-1.175715059152404e+85	1.565844122259868e+89	9.383844749223272e+86	1.369631683260411e+05	2.094608202951623e+87	1.532346217162622e+01	
52	4.487800002100000e-01	-5.581859897363720e-02	7.027607418751477e+81	-4.574767745970101e+85	-9.684227739514980e+84	1.611403352415480e+89	2.226298831970795e+87	3.167932838750288e+05	4.969417035649096e+87	9.991451411948452e+00	
53	4.331099987030000e-01	-5.659141825851464e-02	5.662697105822334e+81	-3.672286182815553e+85	-7.260640710754474e+84	1.286039222454793e+89	1.949764615046195e+87	3.443173065077886e+05	4.352153158585258e+87	9.521306276348719e+00	
54	4.174999892710000e-01	-5.729416860686566e-02	3.133685292041084e+81	-2.030036346441537e+85	-5.075146531249753e+84	7.135609085359344e+88	5.969454388821042e+86	1.904931042048871e+05	1.332467497504697e+87	1.293032785385055e+01	
55	4.019699990750000e-01	-5.792324246601335e-02	2.634236950126684e+81	-1.735095252828714e+85	-3.219558356421818e+84	6.088520638537952e+88	7.099597553805825e+86	2.695124883683830e+05	1.584731596831657e+87	1.090600573941660e+01	
56	3.865399956700000e-01	-5.847520956655861e-02	1.720682964425690e+81	-1.116502760813942e+85	-1.500175269832929e+84	3.843645688697483e+88	6.236530420532539e+86	3.624450610292464e+05	1.392082683154585e+87	9.190923654509845e+00	
57	3.712300062180000e-01	-5.894684318665333e-02	1.412451669527031e+81	-9.144631785396057e+84	-1.176753949845716e+84	3.186271238597336e+88	7.079948106367825e+86	5.012524151526258e+05	1.580345559457104e+87	7.792318645998257e+00	
58	3.560400009160000e-01	-5.933561549045978e-02	2.604138362393334e+81	-1.707674015619392e+85	-2.525891484297876e+84	5.974938954417217e+88	1.013477081024336e+87	3.891794290426641e+05	2.262225627286464e+87	8.980522594606592e+00	
59	3.409900069240000e-01	-5.963847719943702e-02	2.422937654019884e+81	-1.590282019469324e+85	-2.142501941456643e+84	5.537872006526896e+88	8.971231614823547e+86	3.702625859951213e+05	2.002507056880256e+87	9.198542421257841e+00	
60	3.261100053790000e-01	-5.985254444802346e-02	2.109084364667574e+81	-1.390096615293299e+85	-1.670124598955706e+84	4.831608028281593e+88	7.376853142829470e+86	3.497656739773035e+05	1.646619005095864e+87	9.486597430214806e+00	
61	3.113999962810000e-01	-5.997565198183213e-02	2.099511343989100e+81	-1.387271587165853e+85	-1.716612597740502e+84	4.819936484213826e+88	6.659856420214469e+86	3.172098326251790e+05	1.486575093797873e+87	9.990922947260190e+00	
62	2.968699932100000e-01	-6.000550062925582e-02	1.780585584781913e+81	-1.177286132703397e+85	-1.369605360106902e+84	4.081922220636535e+88	5.490502292166797e+86	3.083537426727667e+05	1.225558547358660e+87	1.013093924680974e+01	
63	2.825500071050000e-01	-5.994005483718394e-02	1.524186614834332e+81	-1.010342950901077e+85	-1.283221700160115e+84	3.512569517247803e+88	4.396158619115852e+86	2.884265336232260e+05	9.812854060526457e+86	1.051535490514689e+01	
64	2.684499919410000e-01	-5.977765596976551e-02	1.190255800264977e+81	-7.901978192098477e+84	-9.756307341170842e+83	2.746997333778415e+88	3.359740853428041e+86	2.822704877959922e+05	7.499421547830449e+86	1.064103775129262e+01	
65	2.545700073240000e-01	-5.951657836311273e-02	7.559735815728983e+80	-5.024292841325603e+84	-5.660272034315391e+83	1.742702570670752e+88	2.076360201032774e+86	2.746604182533264e+05	4.634732591591013e+86	1.078561528532280e+01	
66	2.409400045870000e-01	-5.915585896897953e-02	5.730608688836749e+80	-3.823095269189182e+84	-4.306834591337914e+83	1.331353045295479e+88	1.596273639070503e+86	2.785521967640280e+05	3.563110801496657e+86	1.075066846889112e+01	
67	2.275699973110000e-01	-5.869456802648413e-02	4.514037173090065e+80	-3.005676490842888e+84	-3.594174568840211e+83	1.046200619743772e+88	1.249014526634625e+86	2.766956670362592e+05	2.787978854095145e+86	1.077444634462137e+01	
68	2.144699990750000e-01	-5.813197420944613e-02	3.412427721349583e+80	-2.331876420812845e+84	-2.754454927532432e+83	8.298861801114918e+87	8.811049728213911e+85	2.582047283547804e+05	1.966752171476319e+86	1.144471067900993e+01	
69	2.016600072380000e-01	-5.746811193675738e-02	1.066271954966605e+80	-6.439492907698959e+83	-4.973020696631731e+82	2.048211691106301e+87	3.685055046753987e+85	3.456017978893011e+05	8.225569300790151e+85	8.708089550470834e+00	
70	1.891400069000000e-01	-5.670228146432130e-02	3.209582535467091e+80	-2.238599572661678e+84	-3.339610720403638e+83	8.128018979168009e+87	5.898057288834850e+85	1.837640011951432e+05	1.316530644829208e+86	1.390315535330630e+01	
71	1.769299954180000e-01	-5.583513598033686e-02	1.277990585509156e+80	-8.372677682536693e+83	-1.061420093574888e+83	2.842837021353222e+87	2.244202444202395e+85	1.756039887655586e+05	5.009380455808917e+85	1.331887563432747e+01	
72	1.650400012730000e-01	-5.486709202536137e-02	5.885931583047340e+79	-4.051106168803813e+83	-6.489942536450329e+82	1.461004333154472e+87	1.243943656551040e+85	2.113418477601483e+05	2.776659947658570e+85	1.281457862664619e+01	
73	1.534900069240000e-01	-5.379977779145956e-02	4.317592933542618e+79	-2.929703164839257e+83	-4.752047417968719e+82	1.043832419215744e+87	9.482448969723982e+84	2.196235058672741e+05	2.116618073599103e+85	1.239703120439515e+01	
74	1.422899961470000e-01	-5.263443049277360e-02	3.130356704972459e+79	-2.106184046292147e+83	-3.586236201301267e+82	7.453338382368589e+86	6.497624887468839e+84	2.075681942938835e+05	1.450362698095723e+85	1.266088797999087e+01	
75	1.314399987460000e-01	-5.137133628795417e-02	1.101227428521109e+79	-7.431619050083799e+82	-1.252444561828250e+82	2.642328747230290e+86	2.539927194245219e+84	2.306451082185820e+05	5.669480344297365e+84	1.204347320375686e+01	
76	1.209499984980000e-01	-5.001187382363489e-02	8.882048388217124e+78	-5.992988910905170e+82	-1.147952868740652e+82	2.140804762146515e+86	1.791818878616815e+84	2.017348701898351e+05	3.999595711198248e+84	1.292708271281009e+01	
77	1.108499988910000e-01	-4.856066993422563e-02	9.225763582971770e+78	-6.089640609708690e+82	-1.302253458806775e+82	2.169058700215422e+86	2.694321600561239e+84	2.920432088173404e+05	6.014110715538480e+84	1.055629926873961e+01	
78	1.011300012470000e-01	-4.701715290498424e-02	7.206541512825248e+78	-4.300259063694220e+82	-1.121110415614180e+82	1.385155772804047e+86	5.973699800878076e+83	8.289274113313407e+04	1.333415134124571e+84	1.810192142961721e+01	
79	9.181000292300000e-02	-4.538527151431038e-02	2.518728451435675e+78	-1.688023677348459e+82	-5.285820037067595e+81	6.417596322223278e+85	8.259216616351760e+83	3.279121499439135e+05	1.843575137578518e+84	1.036492988460283e+01	
80	8.290000259900000e-02	-4.366791468532204e-02	2.516231989166576e+78	-1.632679120167543e+82	-5.897799182590341e+81	6.368559702498528e+85	1.521904729615306e+84	6.048348229287833e+05	3.397108771462736e+84	7.497235815487978e+00	
81	7.440000027400000e-02	-4.186607976498817e-02	1.735897110615028e+78	-1.057451866719985e+82	-2.861341741260164e+81	3.466965709146646e+85	4.126898267815129e+82	2.377386449104100e+04	9.211826490658769e+82	3.459128581031209e+01	
82	6.633000075800000e-02	-3.998513962421356e-02	4.861431473093888e+77	-3.245108335138661e+81	-1.759469687710585e+81	1.546907521768847e+85	5.816838697211390e+83	1.196527962886098e+06	1.298401494913257e+84	5.866808835298731e+00	
83	5.869000032500000e-02	-3.802635805630503e-02	8.285885220295026e+76	-3.578260472080845e+80	-2.800525661322388e+79	8.297812548202428e+83	2.096497843839103e+82	2.530203820231602e+05	4.679682687140856e+82	7.278088386207220e+00	
84	5.149000138000000e-02	-3.599337852580232e-02	7.175124141133735e+76	-3.074465922684317e+80	-2.701451908855363e+79	7.167689858543613e+83	2.119806596163695e+82	2.954383163924947e+05	4.731711152151105e+82	6.688256501194122e+00	
85	4.473999887700000e-02	-3.389028465845557e-02	1.074206489174173e+77	-6.802107108319239e+80	-1.663925128842074e+80	2.288744906941143e+84	2.502026862160607e+81	2.329186136348992e+04	5.584881388751354e+81	3.610018458165840e+01	
86	3.844000026600000e-02	-3.171811260404538e-02	1.767243470144634e+77	-9.901421030552659e+80	-1.960425510255425e+80	3.012243366620347e+84	5.189937747536179e+82	2.936741787542962e+05	1.158468247217897e+83	8.907466161973794e+00	
