"PointID"	"x"	"y"	"Conservative_1"	"Conservative_2"	"Conservative_3"	"Conservative_4"	"Pressure"	"Temperature"	"C<sub>p</sub>"	"Mach"
0	9.997500181200000e-01	-3.633242804077512e-05	1.199828889056299e+00	7.195748441271749e-01	1.010184606326011e-01	3.446401226902636e+00	1.290549160061306e+00	1.075611007396531e+00	6.485472322797002e-01	4.935180051648441e-01	
1	9.990000128750000e-01	-1.454723422608262e-04	1.181604055912445e+00	7.459498547935235e-01	1.066667984535420e-01	3.400791578783799e+00	1.264206773237799e+00	1.069907273009119e+00	5.897472616915153e-01	5.210697917773340e-01	
2	9.977599978450000e-01	-3.275075334427447e-04	1.171179978498835e+00	7.640400217232816e-01	1.128620553960221e-01	3.375504353666103e+00	1.248339515456108e+00	1.065881878425016e+00	5.543292755716694e-01	5.398352090312186e-01	
3	9.960200190539999e-01	-5.899280051132869e-04	1.164741036708038e+00	7.748486223198289e-01	1.197580350163066e-01	3.359985504585553e+00	1.238437283156512e+00	1.063272645271231e+00	5.322260784743572e-01	5.517309252775431e-01	
4	9.937800168990000e-01	-9.470979254931201e-04	1.160168390407590e+00	7.807397549404623e-01	1.301712414927692e-01	3.348836637519030e+00	1.231533243792442e+00	1.061512495922924e+00	5.168152763224142e-01	5.596450021247965e-01	
5	9.910500049590000e-01	-1.422105037602664e-03	1.155703594732806e+00	7.855125673028935e-01	1.447862470392660e-01	3.337964643740790e+00	1.224778127758311e+00	1.059768381218435e+00	5.017368923176594e-01	5.674035036448707e-01	
6	9.878399968150000e-01	-2.045537577110312e-03	1.148819151545548e+00	7.913179536955798e-01	1.632566767897180e-01	3.320868847228160e+00	1.214693993774246e+00	1.057341351021241e+00	4.792276646746553e-01	5.780681422555278e-01	
7	9.841300249100000e-01	-2.853715097189288e-03	1.137901380828502e+00	8.009828595986315e-01	1.836694585480519e-01	3.293680598763825e+00	1.198778647468152e+00	1.053499598177239e+00	4.437023380985538e-01	5.946550638743836e-01	
8	9.799500107769999e-01	-3.858955164486630e-03	1.121719867138447e+00	8.159923693098932e-01	2.028763183092177e-01	3.253307948035624e+00	1.175266332399854e+00	1.047736040726466e+00	3.912194919639598e-01	6.189221941276646e-01	
9	9.752799868580000e-01	-5.058417369698272e-03	1.100364453183335e+00	8.363997459116657e-01	2.169552228858014e-01	3.199978098065266e+00	1.144284546495616e+00	1.039914133163082e+00	3.220637198562846e-01	6.508105750307680e-01	
10	9.701499938960000e-01	-6.405283187624487e-03	1.075074892631016e+00	8.604891567857877e-01	2.227237850414377e-01	3.136710178513024e+00	1.107708734378106e+00	1.030354947335089e+00	2.404212820939876e-01	6.883834596126230e-01	
11	9.645400047300000e-01	-7.841075588308205e-03	1.048462755557325e+00	8.849331500017267e-01	2.186050893224772e-01	3.069893826084140e+00	1.069459794458668e+00	1.020026499549029e+00	1.550441840595261e-01	7.275289586610633e-01	
12	9.584699869160000e-01	-9.290452894963986e-03	1.024894281183523e+00	9.060885235276946e-01	2.055654846826202e-01	3.010544194391515e+00	1.035760579925104e+00	1.010602360595703e+00	7.982272304710704e-02	7.621421002820744e-01	
13	9.519400000570000e-01	-1.069805585288936e-02	1.008358810341661e+00	9.215743463480428e-01	1.873993279303715e-01	2.968885467911774e+00	1.012136910123036e+00	1.003746781148364e+00	2.709131723891908e-02	7.867514202436438e-01	
14	9.449599981310000e-01	-1.203593374254841e-02	9.999845461956446e-01	9.308013169371643e-01	1.688317920092517e-01	2.947816015178602e+00	1.000144587000423e+00	1.000160043278056e+00	3.227388402290976e-04	7.994550473555053e-01	
15	9.375399947170000e-01	-1.330848373075709e-02	9.979260609334403e-01	9.347645178193889e-01	1.535309589193659e-01	2.942627096976357e+00	9.972065608925498e-01	9.992790046587047e-01	-6.235355150558536e-03	8.025585631670710e-01	
16	9.296900033950000e-01	-1.454301661459823e-02	9.990353228476611e-01	9.355188038952855e-01	1.431350212824009e-01	2.945373312216997e+00	9.988397356710512e-01	9.998042239627202e-01	-2.589875734260668e-03	8.007092333972015e-01	
17	9.214000105860000e-01	-1.577781452363727e-02	1.000478006536786e+00	9.351582548809209e-01	1.374033739779123e-01	2.948931110426919e+00	1.000977683863142e+00	1.000499438591444e+00	2.182330051655527e-03	7.982577493657751e-01	
18	9.126999974250000e-01	-1.704012941473275e-02	1.000505155803625e+00	9.351418773563419e-01	1.349844278087283e-01	2.948905756709287e+00	1.001110223479915e+00	1.000604762177166e+00	2.478177410523974e-03	7.978859953268594e-01	
19	9.035800099370001e-01	-1.835099437543274e-02	9.985165686919468e-01	9.360813136741918e-01	1.342460448609527e-01	2.943774823161788e+00	9.983901721349355e-01	9.998734156638216e-01	-3.593365770233198e-03	8.004654316876230e-01	
20	8.940600156780000e-01	-1.971405500512455e-02	9.947327447098376e-01	9.380301741660766e-01	1.338923539923678e-01	2.934101968790560e+00	9.931244076386209e-01	9.983831465488897e-01	-1.534730437807843e-02	8.057076075689616e-01	
21	8.841500282290000e-01	-2.112469983860618e-02	9.897108545097454e-01	9.406874819216797e-01	1.331598062947388e-01	2.921286783596643e+00	9.861130617757137e-01	9.963648042075747e-01	-3.099762996492484e-02	8.127781350610841e-01	
22	8.738499879840000e-01	-2.257472249437927e-02	9.840362083388529e-01	9.436775257457840e-01	1.317629233920274e-01	2.906799758243015e+00	9.781964613984362e-01	9.940655161965285e-01	-4.866861294991922e-02	8.207931324276250e-01	
23	8.631799817090000e-01	-2.405202144973124e-02	9.781804591476905e-01	9.467099535131865e-01	1.297292986510169e-01	2.891835001022679e+00	9.700425942435837e-01	9.916806098220391e-01	-6.686920927771486e-02	8.290634046308533e-01	
24	8.521599769590000e-01	-2.554593873753334e-02	9.724212859665299e-01	9.495980547940540e-01	1.272272013385855e-01	2.877093943345976e+00	9.620463117262354e-01	9.893307824602152e-01	-8.471805418251016e-02	8.371705528587832e-01	
25	8.407700061800000e-01	-2.705331672263426e-02	9.668695330121448e-01	9.522760660269673e-01	1.244561471838710e-01	2.862861717627701e+00	9.543600967814300e-01	9.870619191073864e-01	-1.018747839700224e-01	8.449606707547871e-01	
26	8.290500044819999e-01	-2.856491083381835e-02	9.615165673857847e-01	9.547390460827360e-01	1.215497319348986e-01	2.849116558697517e+00	9.469716317278216e-01	9.848729224733919e-01	-1.183668934646839e-01	8.524426574561517e-01	
27	8.170099854470000e-01	-3.007687766462796e-02	9.563157972470150e-01	9.570289884572836e-01	1.185971168673853e-01	2.835746810367981e+00	9.398086271407495e-01	9.827387875911022e-01	-1.343557429893984e-01	8.597061174989444e-01	
28	8.046399950980000e-01	-3.158839480696186e-02	9.512026022245129e-01	9.591563623196286e-01	1.156241157331879e-01	2.822581938259181e+00	9.327864947879245e-01	9.806391326164168e-01	-1.500301455626685e-01	8.668233002445516e-01	
29	7.919700145720000e-01	-3.309380859042180e-02	9.461455609873036e-01	9.611534582145621e-01	1.126184269071512e-01	2.809545693826611e+00	9.258574311383372e-01	9.785570733663903e-01	-1.654968054947831e-01	8.738533932798107e-01	
30	7.790099978450000e-01	-3.458985724730083e-02	9.411286449888400e-01	9.630552996288179e-01	1.095687602195225e-01	2.796604323064113e+00	9.189919091162304e-01	9.764785228985652e-01	-1.808216314369857e-01	8.808452201691812e-01	
31	7.657799720760000e-01	-3.607192400281718e-02	9.361080813009426e-01	9.648540982906737e-01	1.064545861498557e-01	2.783637656797967e+00	9.121372814238621e-01	9.743931279347923e-01	-1.961221396788793e-01	8.878343600409635e-01	
32	7.522799968720000e-01	-3.753745125195956e-02	9.310498367980318e-01	9.665641876663490e-01	1.032644811203378e-01	2.770558695390411e+00	9.052461842253051e-01	9.722854228067236e-01	-2.115040530685154e-01	8.948729118551575e-01	
33	7.385200262070000e-01	-3.898259178428872e-02	9.259703679584671e-01	9.681832705333403e-01	9.999100811716391e-02	2.757410462573656e+00	8.983405642685404e-01	9.701612441974323e-01	-2.269183833291510e-01	9.019414824266362e-01	
34	7.245299816130000e-01	-4.040147406350589e-02	9.209209380392059e-01	9.696987231031194e-01	9.662015611487577e-02	2.744325145055183e+00	8.914906233584529e-01	9.680425175874328e-01	-2.422084300034534e-01	9.089676965453168e-01	
35	7.103199958800001e-01	-4.179046999531449e-02	9.159499160943843e-01	9.710984623425422e-01	9.316682033404751e-02	2.731427764077950e+00	8.847623022779763e-01	9.659505249485780e-01	-2.572270038438030e-01	9.158822662135422e-01	
36	6.958900094030001e-01	-4.314701748993480e-02	9.110760257949516e-01	9.723970198305634e-01	8.962742592707885e-02	2.718771661772714e+00	8.781761803378432e-01	9.638890229512935e-01	-2.719281688887429e-01	9.226744011352427e-01	
37	6.812700033190000e-01	-4.446592026284633e-02	9.063036970826751e-01	9.735755103095888e-01	8.602046094455963e-02	2.706362587005816e+00	8.717439982291409e-01	9.618674193156455e-01	-2.862857182385247e-01	9.293148400369210e-01	
38	6.664699912070000e-01	-4.574417779437413e-02	9.016443557263212e-01	9.746440362732114e-01	8.235230977263888e-02	2.694233243862550e+00	8.654781609910637e-01	9.598886251485226e-01	-3.002719620735186e-01	9.357958313104583e-01	
39	6.514999866490000e-01	-4.697901429117664e-02	8.971144506842453e-01	9.756179588047397e-01	7.863491718633694e-02	2.682431408111322e+00	8.593958337620119e-01	9.579556243983534e-01	-3.138485853526520e-01	9.421093809908270e-01	
40	6.363800168040000e-01	-4.816711934879284e-02	8.927137764303047e-01	9.764782015326582e-01	7.488151761934923e-02	2.670949984046833e+00	8.535033007587542e-01	9.560772145487200e-01	-3.270015608063521e-01	9.482285722151498e-01	
41	6.211299896240000e-01	-4.930558126295936e-02	8.884528829781969e-01	9.772597222852286e-01	7.109895610849844e-02	2.659827009206362e+00	8.478041762034638e-01	9.542477631019963e-01	-3.397228209744111e-01	9.541734912701906e-01	
42	6.057599782940000e-01	-5.039254606441098e-02	8.843142279737202e-01	9.779361521230960e-01	6.730574721068903e-02	2.649007271434483e+00	8.422844145722533e-01	9.524718566410811e-01	-3.520437174726488e-01	9.599308416495386e-01	
43	5.902799963950000e-01	-5.142637621195600e-02	8.803144145178919e-01	9.785445736671293e-01	6.350339728980135e-02	2.638545487433627e+00	8.369548486365979e-01	9.507453641946327e-01	-3.639400700075941e-01	9.655155226767826e-01	
44	5.747100114820000e-01	-5.240501949589581e-02	8.764683498788884e-01	9.790523546562698e-01	5.969944626642338e-02	2.628469905431452e+00	8.318460843225822e-01	9.490885602857514e-01	-3.753435617799504e-01	9.708635210164724e-01	
45	5.590599775310000e-01	-5.332731668724943e-02	8.728276710168723e-01	9.795003984576021e-01	5.588526458171936e-02	2.618928701716924e+00	8.270138092613036e-01	9.475109883922518e-01	-3.861298900417330e-01	9.759457735566776e-01	
46	5.433599948880000e-01	-5.419117506428657e-02	8.693818814577371e-01	9.798660159640882e-01	5.206462933615065e-02	2.609885879270942e+00	8.224525800692463e-01	9.460199224421357e-01	-3.963112052025753e-01	9.807405965432596e-01	
47	5.276100039480000e-01	-5.499640207772070e-02	8.660670872873092e-01	9.802012616657924e-01	4.824960396710521e-02	2.601188926967225e+00	8.180626534063480e-01	9.445719222152636e-01	-4.061101486465447e-01	9.853889876835854e-01	
48	5.118399858470000e-01	-5.574135610595845e-02	8.627361331843824e-01	9.804742928243292e-01	4.446371936254132e-02	2.592439476555463e+00	8.136614250412912e-01	9.431173608529008e-01	-4.159343191042607e-01	9.900507376479091e-01	
49	4.960500001910000e-01	-5.642597757684262e-02	8.593793620963087e-01	9.807243000703330e-01	4.071134795857109e-02	2.583624760757983e+00	8.092235360434735e-01	9.416371532003185e-01	-4.258403213315323e-01	9.947869351963966e-01	
50	4.802699983120000e-01	-5.704892721417146e-02	8.561990679988362e-01	9.808922339304229e-01	3.695617874791381e-02	2.575257493632597e+00	8.050349333205574e-01	9.402427115485390e-01	-4.351898809808986e-01	9.992417214488026e-01	
51	4.645099937920000e-01	-5.760980894793073e-02	8.535491099391268e-01	9.810051599020402e-01	3.314139172391823e-02	2.568276005888893e+00	8.015543294171087e-01	9.390840199860016e-01	-4.429590861225253e-01	1.002938315655707e+00	
52	4.487800002100000e-01	-5.810815745090212e-02	8.515433588797603e-01	9.810479760073075e-01	2.924452859457938e-02	2.562972888942787e+00	7.989386978322436e-01	9.382243305652456e-01	-4.487975494815992e-01	1.005678090776207e+00	
53	4.331099987030000e-01	-5.854289419308446e-02	8.498900483963330e-01	9.810774857599980e-01	2.525258813569081e-02	2.558598071621017e+00	7.967862096866974e-01	9.375168131338431e-01	-4.536022105207647e-01	1.007931072665852e+00	
54	4.174999892710000e-01	-5.891378728734377e-02	8.479164907802256e-01	9.811129548955688e-01	2.119780895654577e-02	2.553389418616673e+00	7.942032146092258e-01	9.366526341272424e-01	-4.593678245329781e-01	1.010680705929307e+00	
55	4.019699990750000e-01	-5.921994617568405e-02	8.448713592345518e-01	9.811867022205154e-01	1.712412270529871e-02	2.545384970413962e+00	7.901854176449108e-01	9.352730554871856e-01	-4.683361213283241e-01	1.015065265523707e+00	
56	3.865399956700000e-01	-5.946048421226389e-02	8.402546538197081e-01	9.812255303801495e-01	1.307655626743707e-02	2.533252642848331e+00	7.840908924788828e-01	9.331586429357925e-01	-4.819399721453510e-01	1.021773691214910e+00	
57	3.712300062180000e-01	-5.963451142812570e-02	8.342137426569793e-01	9.811486988646814e-01	9.042028045099862e-03	2.517361659130487e+00	7.761322283430601e-01	9.303757402402305e-01	-4.997048474485267e-01	1.030582413636393e+00	
58	3.560400009160000e-01	-5.974123500362057e-02	8.276276287897850e-01	9.808247872914382e-01	4.912955258829671e-03	2.499981049996895e+00	7.675107175931882e-01	9.273623679232366e-01	-5.189492910866335e-01	1.040095335163993e+00	
59	3.409900069240000e-01	-5.977950222664270e-02	8.217532206567123e-01	9.803293475403853e-01	5.528182343013546e-04	2.484429161855719e+00	7.598703155053649e-01	9.246940521852863e-01	-5.360037600326677e-01	1.048498004640555e+00	
60	3.261100053790000e-01	-5.974821275612580e-02	8.174775842191579e-01	9.798252512700024e-01	-4.075124757089889e-03	2.473075809927051e+00	7.543433623704829e-01	9.227694764144762e-01	-5.483407089944577e-01	1.054546908252261e+00	
61	3.113999962810000e-01	-5.964620836786406e-02	8.149941131179202e-01	9.794118374631151e-01	-8.949321120810962e-03	2.466452786016205e+00	7.511615887263999e-01	9.216773184442815e-01	-5.554428823071430e-01	1.057975324433592e+00	
62	2.968699932100000e-01	-5.947213292395055e-02	8.140304528537314e-01	9.791620472991001e-01	-1.405840839015213e-02	2.463869087334194e+00	7.499407358660479e-01	9.212686493938831e-01	-5.581680002990002e-01	1.059257417169424e+00	
63	2.825500071050000e-01	-5.922489000730295e-02	8.141537240737469e-01	9.790106784868001e-01	-1.939098220094190e-02	2.464170521929979e+00	7.501259787409834e-01	9.213566880067928e-01	-5.577545117388764e-01	1.058981254066459e+00	
64	2.684499919410000e-01	-5.890319394481241e-02	8.150539981370455e-01	9.789583208475169e-01	-2.498527473073268e-02	2.466549017184776e+00	7.513017849622596e-01	9.217816079419242e-01	-5.551299442806705e-01	1.057648076666841e+00	
65	2.545700073240000e-01	-5.850536331498765e-02	8.165321467895545e-01	9.789144098735765e-01	-3.086933283328031e-02	2.470455598739824e+00	7.532309662755924e-01	9.224755807069570e-01	-5.508237359919813e-01	1.055469778805875e+00	
66	2.409400045870000e-01	-5.803053820737234e-02	8.185387680513518e-01	9.789016450721243e-01	-3.709946678573844e-02	2.475772433336415e+00	7.558363158096888e-01	9.233970891923239e-01	-5.450082236390875e-01	1.052575385619446e+00	
67	2.275699973110000e-01	-5.747743433466368e-02	8.209901665460695e-01	9.788483407090187e-01	-4.369252828477985e-02	2.482259862694769e+00	7.590270607357507e-01	9.245263727445124e-01	-5.378860251434138e-01	1.049025401156095e+00	
68	2.144699990750000e-01	-5.684476199819095e-02	8.238001878481331e-01	9.787680093376615e-01	-5.068210671984346e-02	2.489701453024629e+00	7.626794952636444e-01	9.258064109646015e-01	-5.297332695007937e-01	1.044997456346680e+00	
69	2.016600072380000e-01	-5.613183946499747e-02	8.268562216637060e-01	9.785934457926555e-01	-5.808814614262605e-02	2.497784014102020e+00	7.666622217866776e-01	9.272013703229895e-01	-5.208432549404517e-01	1.040602873080753e+00	
70	1.891400069000000e-01	-5.533698712365691e-02	8.301774391367338e-01	9.783382543107795e-01	-6.595757441627717e-02	2.506567694148926e+00	7.709907801300779e-01	9.287060136587169e-01	-5.111812943525046e-01	1.035856747409655e+00	
71	1.769299954180000e-01	-5.445978491771193e-02	8.339268364845288e-01	9.779485935212926e-01	-7.435449880279828e-02	2.516468403474770e+00	7.758927726133934e-01	9.304086865512311e-01	-5.002393468451041e-01	1.030478262519797e+00	
72	1.650400012730000e-01	-5.349939307599512e-02	8.383513848964987e-01	9.774263831782867e-01	-8.334926957516187e-02	2.528143749440692e+00	7.816856394302703e-01	9.324081208821238e-01	-4.873088405574325e-01	1.024151591857889e+00	
73	1.534900069240000e-01	-5.245603601137142e-02	8.435190932039561e-01	9.766915111895434e-01	-9.297441193230638e-02	2.541756387363459e+00	7.884752256391265e-01	9.347449654568516e-01	-4.721535141983783e-01	1.016742043191507e+00	
74	1.422899961470000e-01	-5.132943186948592e-02	8.493535528426605e-01	9.757313121168385e-01	-1.032726072527514e-01	2.557114427384610e+00	7.961517583999531e-01	9.373620157770004e-01	-4.550183964286761e-01	1.008423783427722e+00	
75	1.314399987460000e-01	-5.011831996582183e-02	8.557082723040529e-01	9.744055558099324e-01	-1.142957374646349e-01	2.573801101805535e+00	8.045536538044780e-01	9.402195582825940e-01	-4.362641656150046e-01	9.993156328367538e-01	
76	1.209499984980000e-01	-4.882245017152336e-02	8.626480721846738e-01	9.727341738399904e-01	-1.261548364495880e-01	2.592012007701610e+00	8.137412278548426e-01	9.433061454528341e-01	-4.157561878240121e-01	9.894461289589325e-01	
77	1.108499988910000e-01	-4.744461106981140e-02	8.703511870493164e-01	9.706225180936666e-01	-1.389166084535086e-01	2.612206407580143e+00	8.239588919805831e-01	9.466970393571666e-01	-3.929489018290555e-01	9.785642317364635e-01	
78	1.011300012470000e-01	-4.598262584813981e-02	8.788748095234441e-01	9.678399465013944e-01	-1.526569713129012e-01	2.634487186358132e+00	8.353295589985269e-01	9.504534092306859e-01	-3.675679486640024e-01	9.664587173512432e-01	
79	9.181000292300000e-02	-4.443860830011519e-02	8.882581653378027e-01	9.642317152025766e-01	-1.675000887374127e-01	2.658943037890716e+00	8.479193990606029e-01	9.545866642702251e-01	-3.394656270968686e-01	9.530732934101783e-01	
80	8.290000259900000e-02	-4.281367699973521e-02	8.986131029506317e-01	9.597075210555948e-01	-1.835644635637442e-01	2.685881864567602e+00	8.618620899220216e-01	9.591025181939408e-01	-3.083435492812017e-01	9.383654604354269e-01	
81	7.440000027400000e-02	-4.110718751462507e-02	9.099985114697786e-01	9.539755362597713e-01	-2.009624777341949e-01	2.715418140672091e+00	8.772756527641087e-01	9.640407557889106e-01	-2.739382750801145e-01	9.221751986177832e-01	
82	6.633000075800000e-02	-3.932267925328512e-02	9.225658252871041e-01	9.467723946075356e-01	-2.198497880701954e-01	2.747936281228058e+00	8.943735388129705e-01	9.694414363708305e-01	-2.357733508639050e-01	9.043312156949015e-01	
83	5.869000032500000e-02	-3.745985132580149e-02	9.364328363830151e-01	9.376811200403995e-01	-2.403611621665090e-01	2.783701678294273e+00	9.133554013031497e-01	9.753560168084215e-01	-1.934031220911836e-01	8.846104166780729e-01	
84	5.149000138000000e-02	-3.552072267316082e-02	9.517895678028631e-01	9.261863660459402e-01	-2.626172152719607e-01	2.823166002140113e+00	9.345197850581834e-01	9.818554611976411e-01	-1.461611940665548e-01	8.627037659384833e-01	
85	4.473999887700000e-02	-3.350781566922352e-02	9.689131301478334e-01	9.115597077877338e-01	-2.867360909536006e-01	2.866986660482061e+00	9.583033209950945e-01	9.890497828725678e-01	-9.307294420737830e-02	8.381373456754677e-01	
86	3.844000026600000e-02	-3.142081989852793e-02	9.880316908762941e-01	8.928692920898839e-01	-3.127888074203082e-01	2.915678113990508e+00	9.850923585079400e-01	9.970250626619608e-01	-3.327598547334829e-02	8.104688041773216e-01	
