"PointID"	"x"	"y"	"Conservative_1"	"Conservative_2"	"Conservative_3"	"Conservative_4"	"Pressure"	"Temperature"	"Pressure_Coefficient"	"Mach"
0	9.997500181200000e-01	-3.632563684475538e-05	1.166136508275906e+00	7.205696280690669e-01	1.025505662543640e-01	3.353429532702074e+00	1.250518434634101e+00	1.072360247500485e+00	5.591929344511187e-01	5.093853798957646e-01	
1	9.990000128750000e-01	-1.450443529794804e-04	1.144569993349422e+00	7.545412612391286e-01	1.057769244628589e-01	3.300166521842423e+00	1.218627417418954e+00	1.064703272407845e+00	4.880076281673080e-01	5.452408686585553e-01	
2	9.977599978450000e-01	-3.228299084656444e-04	1.127565807338595e+00	7.809582399533006e-01	1.087880272574488e-01	3.258527817637741e+00	1.193132755118117e+00	1.058149109659756e+00	4.310998998172265e-01	5.745419882796206e-01	
3	9.960200190539999e-01	-5.648157333729658e-04	1.113273620642084e+00	8.017614443201438e-01	1.068815001257797e-01	3.223407151694476e+00	1.171827502516672e+00	1.052596128021804e+00	3.835435324032853e-01	5.985127528141816e-01	
4	9.937800168990000e-01	-8.571635180905767e-04	1.101749701656896e+00	8.175255967550765e-01	1.005107220988979e-01	3.194925983422255e+00	1.154811656754536e+00	1.048161533438895e+00	3.455617338270900e-01	6.171603510509550e-01	
5	9.910500049590000e-01	-1.176750784259770e-03	1.094897702148275e+00	8.281080277492678e-01	8.938369984903206e-02	3.178150066458152e+00	1.144535429379287e+00	1.045335493109191e+00	3.226237262930506e-01	6.288351704827733e-01	
6	9.878399968150000e-01	-1.498049218731114e-03	1.094463430915989e+00	8.314053551554021e-01	7.587812492667637e-02	3.177383996960067e+00	1.143586647137202e+00	1.044883378314524e+00	3.205059087883979e-01	6.306883717285694e-01	
7	9.841300249100000e-01	-1.807681535753098e-03	1.100977355187769e+00	8.264947496958888e-01	6.455185502590882e-02	3.193952317182703e+00	1.152735395759511e+00	1.047010994665657e+00	3.409272226774789e-01	6.219316672190736e-01	
8	9.799500107769999e-01	-2.113889414747909e-03	1.112573625051390e+00	8.138877662327861e-01	6.075848614214732e-02	3.223007897795595e+00	1.169461889927012e+00	1.051132135073753e+00	3.782631471585093e-01	6.047137949860665e-01	
9	9.752799868580000e-01	-2.468791252132169e-03	1.125622506714530e+00	7.969299224517620e-01	6.873538651405425e-02	3.255478971053253e+00	1.188508386310192e+00	1.055867645876426e+00	4.207776480138203e-01	5.844777836114674e-01	
10	9.701499938960000e-01	-2.960772612385684e-03	1.135654386272754e+00	7.806604054751952e-01	8.967665505465616e-02	3.280240338190189e+00	1.203353091863889e+00	1.059612067200589e+00	4.539131514818957e-01	5.681005202646947e-01	
11	9.645400047300000e-01	-3.704672185648726e-03	1.139131255274211e+00	7.699906899524996e-01	1.210585932014509e-01	3.288562862209753e+00	1.208757745005527e+00	1.061122446960298e+00	4.659771093873373e-01	5.613932724153077e-01	
12	9.584699869160000e-01	-4.799806887524716e-03	1.133879031442345e+00	7.686913885188628e-01	1.581148121390190e-01	3.275156045518296e+00	1.201428828993242e+00	1.059574077725884e+00	4.496179218599142e-01	5.682690772239830e-01	
13	9.519400000570000e-01	-6.300119094165968e-03	1.118923259693063e+00	7.786964832624321e-01	1.948949723339615e-01	3.237652156353459e+00	1.179887233303738e+00	1.054484499345736e+00	4.015340029101285e-01	5.904420227720519e-01	
14	9.449599981310000e-01	-8.186763296573755e-03	1.094089308133444e+00	7.998032626382579e-01	2.255283301966937e-01	3.175519355776753e+00	1.143975216041669e+00	1.045595827998111e+00	3.213732500930106e-01	6.277667558386709e-01	
15	9.375399947170000e-01	-1.036896685427433e-02	1.060136084167416e+00	8.296824547935803e-01	2.449434671640685e-01	3.090450390919196e+00	1.094996342501670e+00	1.032882814626230e+00	2.120454073697986e-01	6.785894522032679e-01	
16	9.296900033950000e-01	-1.270568158335715e-02	1.019218837548500e+00	8.639778578388155e-01	2.494068074965292e-01	2.987562473983897e+00	1.036342385883758e+00	1.016800659195473e+00	8.112139706196017e-02	7.394929071267263e-01	
17	9.214000105860000e-01	-1.504413613250504e-02	9.735711761139580e-01	8.975354254381491e-01	2.382128714380914e-01	2.872020977140862e+00	9.716636205115241e-01	9.980406613823061e-01	-6.325084707249083e-02	8.069138702280539e-01	
18	9.126999974250000e-01	-1.723436521113612e-02	9.222919011260978e-01	9.256675343200884e-01	2.148938809557472e-01	2.740754677530640e+00	9.004767178120894e-01	9.763467690788866e-01	-2.221501834551576e-01	8.812902747332696e-01	
19	9.035800099370001e-01	-1.917386194738079e-02	8.735854867811096e-01	9.442937648953482e-01	1.820103818406377e-01	2.614762598293237e+00	8.341756762470188e-01	9.548872879295380e-01	-3.701435798057616e-01	9.521004464787421e-01	
20	8.940600156780000e-01	-2.079920811638792e-02	8.456942503032235e-01	9.554361236117871e-01	1.446104405320155e-01	2.542607926540032e+00	7.962138660586316e-01	9.414914028008935e-01	-4.548797632619829e-01	9.952552299618720e-01	
21	8.841500282290000e-01	-2.209510318884294e-02	8.436653955181485e-01	9.620071179565728e-01	1.091494975702204e-01	2.537875783626915e+00	7.929363142044785e-01	9.398706150765923e-01	-4.621957272221462e-01	1.000431915993409e+00	
22	8.738499879840000e-01	-2.308381681255173e-02	8.599393504212695e-01	9.641709580411322e-01	7.884897012571480e-02	2.580510903115253e+00	8.145511521072500e-01	9.472193029755130e-01	-4.139483211891740e-01	9.768870233964870e-01	
23	8.631799817090000e-01	-2.381057686627226e-02	8.848491874643897e-01	9.621317347298045e-01	5.508258323409741e-02	2.645232132847905e+00	8.481742412203821e-01	9.585523196906554e-01	-3.388967829902185e-01	9.401646501218723e-01	
24	8.521599769590000e-01	-2.433530503003656e-02	9.116202983871722e-01	9.571626378438604e-01	3.834700018511634e-02	2.714584359124124e+00	8.845151004972588e-01	9.702670092604702e-01	-2.577787935329045e-01	9.015926360531851e-01	
25	8.407700061800000e-01	-2.472353082780515e-02	9.361029088364994e-01	9.503155882852120e-01	2.822016978883830e-02	2.777768823229892e+00	9.179885705133221e-01	9.806492019710827e-01	-1.830612265327633e-01	8.667918174850189e-01	
26	8.290500044819999e-01	-2.503557340971771e-02	9.568114869394616e-01	9.425643039859941e-01	2.346524186047850e-02	2.830954558418867e+00	9.465608760108771e-01	9.892866974649597e-01	-1.192837589042921e-01	8.373249733707224e-01	
27	8.170099854470000e-01	-2.532607156229025e-02	9.736315687305278e-01	9.348100511256064e-01	2.284241597801931e-02	2.873954326549683e+00	9.699672571916441e-01	9.962364495394688e-01	-6.703737234008010e-02	8.132294767782496e-01	
28	8.046399950980000e-01	-2.564091363580725e-02	9.868777324006469e-01	9.277656835264231e-01	2.526273939664075e-02	2.907704318046046e+00	9.885135226170861e-01	1.001657540911842e+00	-2.563945844400416e-02	7.941677547532139e-01	
29	7.919700145720000e-01	-2.601545567352349e-02	9.969716429889196e-01	9.218084712088406e-01	2.981246273323011e-02	2.933363979058708e+00	1.002704902591157e+00	1.005750674698278e+00	6.037728998117236e-03	7.796069699230576e-01	
30	7.790099978450000e-01	-2.647639947279831e-02	1.004303688006265e+00	9.170239886612795e-01	3.574007235609447e-02	2.951954547573169e+00	1.013061564964640e+00	1.008720347304272e+00	2.915527893892945e-02	7.689459621879544e-01	
31	7.657799720760000e-01	-2.704188293123585e-02	1.009262532568427e+00	9.134905900410338e-01	4.245235765517210e-02	2.964508849698198e+00	1.020085060538563e+00	1.010723203944363e+00	4.483272441643468e-02	7.617075502457592e-01	
32	7.522799968720000e-01	-2.772390352827836e-02	1.012224142718943e+00	9.111958591393714e-01	4.952463895267339e-02	2.972015267443405e+00	1.024271287379140e+00	1.011901657105152e+00	5.417698075700886e-02	7.574298119814958e-01	
33	7.385200262070000e-01	-2.852837932360206e-02	1.013406889728482e+00	9.099246170560564e-01	5.662021925433479e-02	2.974993338772824e+00	1.025962796889462e+00	1.012389798498749e+00	5.795267162826243e-02	7.556537268763324e-01	
34	7.245299816130000e-01	-2.945506621286902e-02	1.013128825451676e+00	9.097676867390808e-01	6.348808928197819e-02	2.974317490339925e+00	1.025540969557472e+00	1.012251298940451e+00	5.701109276221474e-02	7.561580383880940e-01	
35	7.103199958800001e-01	-3.050076343296162e-02	1.011514621823669e+00	9.104040966149363e-01	6.997299912283317e-02	2.970238507271699e+00	1.023247199679277e+00	1.011599019532170e+00	5.189107071267118e-02	7.585300855718220e-01	
36	6.958900094030001e-01	-3.165999902358751e-02	1.008790684468452e+00	9.118377022382385e-01	7.590000390679603e-02	2.963367442865728e+00	1.019364317174108e+00	1.010481493206123e+00	4.322392226363448e-02	7.625838979821634e-01	
37	6.812700033190000e-01	-3.292236879931512e-02	1.005079221384442e+00	9.138688273661172e-01	8.119680318941976e-02	2.953984286837179e+00	1.014094648677125e+00	1.008969867350621e+00	3.146126936858298e-02	7.680472416209966e-01	
38	6.664699912070000e-01	-3.427697138351718e-02	1.000532642584117e+00	9.163946958253294e-01	8.578124006132085e-02	2.942476065224693e+00	1.007653090429279e+00	1.007116657210476e+00	1.708279113678417e-02	7.747147503694106e-01	
39	6.514999866490000e-01	-3.571148588583885e-02	9.952887149188371e-01	9.193420107323594e-01	8.958905971189043e-02	2.929197969625379e+00	1.000228247127478e+00	1.004962913910908e+00	5.094801952627451e-04	7.824225577104128e-01	
40	6.363800168040000e-01	-3.721157007843977e-02	9.894482186710725e-01	9.225253515574110e-01	9.262535921376626e-02	2.914377154792858e+00	9.919908883855969e-01	1.002569785529494e+00	-1.787748128214977e-02	7.909372210239949e-01	
41	6.211299896240000e-01	-3.876214102275111e-02	9.831271442781242e-01	9.259303044031234e-01	9.484629175512363e-02	2.898324951672359e+00	9.830877209136430e-01	9.999599000345883e-01	-3.775062296061819e-02	8.001655966416246e-01	
42	6.057599782940000e-01	-4.034875442093410e-02	9.765377585483697e-01	9.293195888168997e-01	9.626138812948672e-02	2.881551889814848e+00	9.738460704901192e-01	9.972436415953322e-01	-5.837930694169827e-02	8.097087594347950e-01	
43	5.902799963950000e-01	-4.195690682613341e-02	9.701335540699254e-01	9.326226908828491e-01	9.673854540796914e-02	2.865254331245758e+00	9.648600001555727e-01	9.945640949205099e-01	-7.843749965273947e-02	8.190641837976925e-01	
44	5.747100114820000e-01	-4.357116390291970e-02	9.638517545133738e-01	9.357392049906157e-01	9.642760698397822e-02	2.849237861697878e+00	9.560764213637806e-01	9.919330611650766e-01	-9.804370231298980e-02	8.281960639314986e-01	
45	5.590599775310000e-01	-4.517737950629451e-02	9.567115156043249e-01	9.388180153958465e-01	9.577943701911834e-02	2.830925075507303e+00	9.462004373711757e-01	9.890133252692067e-01	-1.200883094393401e-01	8.382697348802913e-01	
46	5.433599948880000e-01	-4.675973072614145e-02	9.500237173654935e-01	9.409716319213152e-01	9.463041362349316e-02	2.813577837253784e+00	9.371447772212178e-01	9.864435593460866e-01	-1.403018365597817e-01	8.470851471961535e-01	
47	5.276100039480000e-01	-4.830591743167578e-02	9.514984788713987e-01	9.405718148411112e-01	9.125082220770322e-02	2.817321158790839e+00	9.392241063877143e-01	9.870999557474404e-01	-1.356604768131378e-01	8.448382064255354e-01	
48	5.118399858470000e-01	-4.980117185979217e-02	9.622727244662221e-01	9.366416557305154e-01	8.387757016026023e-02	2.844918622899253e+00	9.541665337765627e-01	9.915759945350672e-01	-1.023068442487440e-01	8.294357099481813e-01	
49	4.960500001910000e-01	-5.123415609105724e-02	9.505126290172193e-01	9.357618499529540e-01	7.443242613084441e-02	2.812911212907798e+00	9.397507622969214e-01	9.886778287928430e-01	-1.344849055872289e-01	8.394321103392965e-01	
50	4.802699983120000e-01	-5.259134488582620e-02	8.481177694457905e-01	9.462008800943096e-01	7.816593979840347e-02	2.543553886150614e+00	8.048553161122751e-01	9.489900401900725e-01	-4.355908122493859e-01	9.712012203646365e-01	
51	4.645099937920000e-01	-5.386168405171382e-02	7.195000031587961e-01	9.458729811998271e-01	8.371498651582542e-02	2.208021469475747e+00	6.325667833225955e-01	8.791755115294780e-01	-8.201634300834921e-01	1.189582446531637e+00	
52	4.487800002100000e-01	-5.503466526424326e-02	6.795476781622742e-01	9.291917446443290e-01	6.646202310303714e-02	2.098769963206135e+00	5.840985337552312e-01	8.595401802193344e-01	-9.283514871535017e-01	1.249673062813333e+00	
53	4.331099987030000e-01	-5.609905147643719e-02	6.908541984999764e-01	9.421551655241999e-01	5.944944761789032e-02	2.132508029429135e+00	5.950064898349527e-01	8.612620305802097e-01	-9.040033709041234e-01	1.244420700845582e+00	
54	4.174999892710000e-01	-5.704649111300620e-02	7.020038611378282e-01	9.453793900837181e-01	5.326472765784763e-02	2.162120067184730e+00	6.094137274230811e-01	8.681059480717467e-01	-8.718443584306226e-01	1.223501411402518e+00	
55	4.019699990750000e-01	-5.786800976895751e-02	7.082842428233933e-01	9.488171044510979e-01	4.647144625154392e-02	2.179386666149520e+00	6.169379026649690e-01	8.710315228893197e-01	-8.550493244085515e-01	1.214546805022643e+00	
56	3.865399956700000e-01	-5.855566177191287e-02	7.133731385628700e-01	9.516063961548701e-01	3.862979529516605e-02	2.193367508678072e+00	6.230489523518092e-01	8.733843744200634e-01	-8.414085885004259e-01	1.207345075923294e+00	
57	3.712300062180000e-01	-5.910261722335943e-02	7.199217510380279e-01	9.544834898666134e-01	2.998262510890260e-02	2.211153490980581e+00	6.311178381731669e-01	8.766478263272115e-01	-8.233976826491810e-01	1.197348817383229e+00	
58	3.560400009160000e-01	-5.950368884974754e-02	7.277951590337102e-01	9.576566608077145e-01	2.087430606183395e-02	2.232498886515097e+00	6.408566253067670e-01	8.805453256347969e-01	-8.016593185116808e-01	1.185397322848740e+00	
59	3.409900069240000e-01	-5.975394865532477e-02	7.364284915893133e-01	9.608702503034873e-01	1.130865924173692e-02	2.255869665752951e+00	6.515700829214771e-01	8.847703346122581e-01	-7.777453506217029e-01	1.172424664921512e+00	
60	3.261100053790000e-01	-5.984977502918254e-02	7.456798233583173e-01	9.639763006421352e-01	1.324407325327276e-03	2.280857453615692e+00	6.631067722460899e-01	8.892647373233956e-01	-7.519938119506921e-01	1.158603460306072e+00	
61	3.113999962810000e-01	-5.978907438831943e-02	7.555606494578861e-01	9.669452498704271e-01	-9.091855578462689e-03	2.307492610317900e+00	6.754813010148759e-01	8.940133416153068e-01	-7.243720959489377e-01	1.143972889292200e+00	
62	2.968699932100000e-01	-5.957053179388436e-02	7.660315448825900e-01	9.696464348757196e-01	-1.987542414023069e-02	2.335637855017265e+00	6.886753751068064e-01	8.990169918033338e-01	-6.949210377080214e-01	1.128521918796408e+00	
63	2.825500071050000e-01	-5.919447591682687e-02	7.770535054781480e-01	9.720581194131673e-01	-3.098958852206674e-02	2.365196630233336e+00	7.026314929348894e-01	9.042253692717542e-01	-6.637689889846220e-01	1.112396295866807e+00	
64	2.684499919410000e-01	-5.866229517900162e-02	7.885354913829041e-01	9.740474406283725e-01	-4.236417506046088e-02	2.395896494180070e+00	7.172627559981994e-01	9.096137888990778e-01	-6.311099196468762e-01	1.095662263311537e+00	
65	2.545700073240000e-01	-5.797585048789781e-02	8.004537776650288e-01	9.755864082393157e-01	-5.397208371686344e-02	2.427677091570377e+00	7.325356825941745e-01	9.151505096659357e-01	-5.970185656380035e-01	1.078407223229706e+00	
66	2.409400045870000e-01	-5.713954014901207e-02	8.128111860499592e-01	9.765949968847540e-01	-6.574530076506863e-02	2.460528551060172e+00	7.484714973137745e-01	9.208430077729887e-01	-5.614475506388963e-01	1.060595841190215e+00	
67	2.275699973110000e-01	-5.615810588002695e-02	8.255802213658799e-01	9.770296821570909e-01	-7.762395796177492e-02	2.494374595904787e+00	7.650377520485208e-01	9.266667638703909e-01	-5.244693034631234e-01	1.042291079523329e+00	
68	2.144699990750000e-01	-5.503722889725969e-02	8.386609676789257e-01	9.768076577723339e-01	-8.953721557038552e-02	2.528935228296612e+00	7.821201998569571e-01	9.325820921671717e-01	-4.863388396050064e-01	1.023603935169996e+00	
69	2.016600072380000e-01	-5.378451966135056e-02	8.519708505686158e-01	9.759100556732282e-01	-1.014319907835793e-01	2.563995758210166e+00	7.996072650047793e-01	9.385382897444341e-01	-4.473052120429034e-01	1.004681088363956e+00	
70	1.891400069000000e-01	-5.240658996121467e-02	8.654186434985117e-01	9.742940960278755e-01	-1.132300772211289e-01	2.599308228787304e+00	8.173869591121331e-01	9.444989026441502e-01	-4.076183948389886e-01	9.856264526507688e-01	
71	1.769299954180000e-01	-5.091290616425145e-02	8.789787002499884e-01	9.719493216114238e-01	-1.248804289814634e-01	2.634806862574108e+00	8.354235697821903e-01	9.504480251280146e-01	-3.673581031647537e-01	9.664792257716941e-01	
72	1.650400012730000e-01	-4.931272722750343e-02	8.926451976927762e-01	9.688355278502828e-01	-1.363328692588331e-01	2.670468686677146e+00	8.537172834371103e-01	9.563903840447662e-01	-3.265239208993074e-01	9.472124919839918e-01	
73	1.534900069240000e-01	-4.761746326649068e-02	9.064529252399512e-01	9.649340532963413e-01	-1.475187368922999e-01	2.706384332822907e+00	8.723145737833046e-01	9.623385280072767e-01	-2.850121120908380e-01	9.277719239345408e-01	
74	1.422899961470000e-01	-4.583790103859256e-02	9.203775701701279e-01	9.602229389947551e-01	-1.584017019114035e-01	2.742488998721427e+00	8.911845883477660e-01	9.682815153600870e-01	-2.428915438665937e-01	9.081789965860780e-01	
75	1.314399987460000e-01	-4.398351177244189e-02	9.343246309888499e-01	9.546624461825882e-01	-1.689252890803868e-01	2.778523861549986e+00	9.102126354798709e-01	9.741931286950450e-01	-2.004182243752883e-01	8.885056761963028e-01	
76	1.209499984980000e-01	-4.206551875572673e-02	9.482264838280269e-01	9.483287018921577e-01	-1.790848930459859e-01	2.814337042648407e+00	9.292841290360403e-01	9.800233856414605e-01	-1.578479262588386e-01	8.689074110348902e-01	
77	1.108499988910000e-01	-4.009940529542495e-02	9.620663487126859e-01	9.412041167100627e-01	-1.888259148222494e-01	2.849880033463860e+00	9.483809400071870e-01	9.857749845176367e-01	-1.152211160553862e-01	8.493653541688023e-01	
78	1.011300012470000e-01	-3.809322869082146e-02	9.758357664678398e-01	9.332966686301118e-01	-1.981645200712311e-01	2.885138226457508e+00	9.674845826889659e-01	9.914420191738802e-01	-7.257905649784405e-02	8.298902981222399e-01	
79	9.181000292300000e-02	-3.606083113631300e-02	9.894681039630872e-01	9.245136784106426e-01	-2.070808870772108e-01	2.919911075446647e+00	9.865319955673965e-01	9.970326396738505e-01	-3.006250989420434e-02	8.104437193647023e-01	
80	8.290000259900000e-02	-3.401404228924670e-02	1.002982800911411e+00	9.149481427489974e-01	-2.156283011101545e-01	2.954284601513922e+00	1.005514275197958e+00	1.002523945858540e+00	1.230864999544295e-02	7.910961673368955e-01	
81	7.440000027400000e-02	-3.196196171628608e-02	1.016346452928531e+00	9.045683639339390e-01	-2.238406828391679e-01	2.988167576030025e+00	1.024390539659876e+00	1.007914709308196e+00	5.444316888365235e-02	7.718436988263533e-01	
82	6.633000075800000e-02	-2.991800679763901e-02	1.029555923040077e+00	8.933397114176321e-01	-2.317912657601062e-01	3.021553560417382e+00	1.043155321390667e+00	1.013208994330716e+00	9.632884238988274e-02	7.526637751669804e-01	
83	5.869000032500000e-02	-2.789010574493489e-02	1.042608016491078e+00	8.812368761302684e-01	-2.395957265559766e-01	3.054441905391693e+00	1.061796303375530e+00	1.018404123679224e+00	1.379381771775228e-01	7.335569713582634e-01	
84	5.149000138000000e-02	-2.588785546603522e-02	1.055523035843871e+00	8.681838736968504e-01	-2.473570244635484e-01	3.086884704737921e+00	1.080341574740316e+00	1.023513024399892e+00	1.793338721882059e-01	7.144657191057155e-01	
85	4.473999887700000e-02	-2.392001826545155e-02	1.068340003298741e+00	8.539574517119728e-01	-2.552620730714287e-01	3.118960010740616e+00	1.098866919317637e+00	1.028574157969034e+00	2.206850877625836e-01	6.952305803694853e-01	
86	3.844000026600000e-02	-2.199125483813636e-02	1.081103696782448e+00	8.383475279634851e-01	-2.635795680356368e-01	3.150778560686369e+00	1.117438771331663e+00	1.033609240868711e+00	2.621401145796057e-01	6.757462914488026e-01	
