"Global_Index", "x_coord", "y_coord", "Pressure", "Pressure_Coefficient", "Mach_Number"
149, 4.960500001910000e-01, 4.643069695884482e-02, 8.578770478764094e-01, -3.172387324187290e-01, 9.332814208642952e-01
150, 5.118399858470000e-01, 4.604782340941056e-02, 8.682809427313183e-01, -2.940157528318789e-01, 9.241861849177130e-01
151, 5.276100039480000e-01, 4.557749226703190e-02, 8.507153697637566e-01, -3.332246210630433e-01, 9.435698517835280e-01
152, 5.433599948880000e-01, 4.501319142148380e-02, 8.323306455967679e-01, -3.742619517929287e-01, 9.637152326753545e-01
153, 5.590599775310000e-01, 4.434995406930858e-02, 8.225938925807792e-01, -3.959957754893322e-01, 9.747610857650384e-01
154, 5.747100114820000e-01, 4.358253090224354e-02, 8.217305674456975e-01, -3.979228405229966e-01, 9.756302006208384e-01
155, 5.902799963950000e-01, 4.270830031428915e-02, 8.241931383882093e-01, -3.924260303834614e-01, 9.733524911324763e-01
156, 6.057599782940000e-01, 4.172532548703892e-02, 8.293173078838050e-01, -3.809881520450782e-01, 9.672671952876351e-01
157, 6.211299896240000e-01, 4.063420780007527e-02, 8.360861858172287e-01, -3.658790495151145e-01, 9.599845471091293e-01
158, 6.363800168040000e-01, 3.943710956996829e-02, 8.461084147730765e-01, -3.435080027386685e-01, 9.497554678547242e-01
159, 6.514999866490000e-01, 3.813850784307869e-02, 8.615158109219039e-01, -3.091164934778932e-01, 9.336944172657476e-01
160, 6.664699912070000e-01, 3.674628515633016e-02, 8.793848765187404e-01, -2.692301863420973e-01, 9.155957222058280e-01
161, 6.812700033190000e-01, 3.527108447607699e-02, 8.985897052657350e-01, -2.263622650318415e-01, 8.960006204980462e-01
162, 6.958900094030001e-01, 3.372505118502116e-02, 9.152391322260776e-01, -1.891983655667912e-01, 8.784060510144933e-01
163, 7.103199958800001e-01, 3.212237690866306e-02, 9.292058669745420e-01, -1.580226183603973e-01, 8.637424118923127e-01
164, 7.245299816130000e-01, 3.048120277453159e-02, 9.440622042569274e-01, -1.248611512122155e-01, 8.484533979631439e-01
165, 7.385200262070000e-01, 2.881730152090677e-02, 9.592461572444261e-01, -9.096839900797750e-02, 8.330015228298171e-01
166, 7.522799968720000e-01, 2.714778724686030e-02, 9.740950306060355e-01, -5.782359239724213e-02, 8.179521517826709e-01
167, 7.657799720760000e-01, 2.549166606521542e-02, 9.880539638749165e-01, -2.666525920777565e-02, 8.037828258144111e-01
168, 7.790099978450000e-01, 2.386418177190352e-02, 1.000667235240903e+00, 1.489364377016015e-03, 7.908779033622284e-01
169, 7.919700145720000e-01, 2.227733271955880e-02, 1.012139328005274e+00, 2.709671429748551e-02, 7.791978302943091e-01
170, 8.046399950980000e-01, 2.074314029864663e-02, 1.022578587716372e+00, 5.039863329547421e-02, 7.685828279169209e-01
171, 8.170099854470000e-01, 1.926981113082622e-02, 1.031953663267272e+00, 7.132514122158955e-02, 7.590361841685421e-01
172, 8.290500044819999e-01, 1.786545423707150e-02, 1.040283015123504e+00, 8.991744447210731e-02, 7.505530384006448e-01
173, 8.407700061800000e-01, 1.653146500738509e-02, 1.047657721357993e+00, 1.063788423169496e-01, 7.430090245713581e-01
174, 8.521599769590000e-01, 1.527019685051414e-02, 1.054202192683265e+00, 1.209870372394308e-01, 7.363243728433880e-01
175, 8.631799817090000e-01, 1.408622526663580e-02, 1.059958382493404e+00, 1.338356752084911e-01, 7.304287622762511e-01
176, 8.738499879840000e-01, 1.297692449708846e-02, 1.064930500997699e+00, 1.449341540127211e-01, 7.253402571900537e-01
177, 8.841500282290000e-01, 1.194330780099374e-02, 1.069079877666302e+00, 1.541961555051374e-01, 7.210953940569054e-01
178, 8.940600156780000e-01, 1.098512905861525e-02, 1.072306862113487e+00, 1.613992457890335e-01, 7.178040795738604e-01
179, 9.035800099370001e-01, 1.009839167414703e-02, 1.074547826712608e+00, 1.664013989120721e-01, 7.155348675104727e-01
180, 9.126999974250000e-01, 9.277747924012009e-03, 1.075776308811777e+00, 1.691435464548586e-01, 7.143046214061270e-01
181, 9.214000105860000e-01, 8.516046169410841e-03, 1.076100319596194e+00, 1.698667848129335e-01, 7.140046173727208e-01
182, 9.296900033950000e-01, 7.801167379275096e-03, 1.075735336672756e+00, 1.690520907874018e-01, 7.144108466748285e-01
31, 7.657799720760000e-01, -2.951033727360171e-02, 9.653373055325388e-01, -7.737208586486870e-02, 8.324375129333113e-01
32, 7.522799968720000e-01, -3.096181144522562e-02, 9.596822792563328e-01, -8.999491237425723e-02, 8.381663493391913e-01
33, 7.385200262070000e-01, -3.241453277608040e-02, 9.539930627199708e-01, -1.026940564286367e-01, 8.439311414052540e-01
34, 7.245299816130000e-01, -3.386376679305321e-02, 9.482196657020617e-01, -1.155811033436122e-01, 8.497683433221986e-01
35, 7.103199958800001e-01, -3.530689307158652e-02, 9.424003511996227e-01, -1.285706446436993e-01, 8.556722522317212e-01
36, 6.958900094030001e-01, -3.674225211597043e-02, 9.366993363275087e-01, -1.412961242689539e-01, 8.614714160459569e-01
37, 6.812700033190000e-01, -3.816515293304169e-02, 9.308965758844522e-01, -1.542487145436335e-01, 8.673975798966967e-01
38, 6.664699912070000e-01, -3.957289370556494e-02, 9.251395653598747e-01, -1.670991844645653e-01, 8.732897216444870e-01
39, 6.514999866490000e-01, -4.096270419333766e-02, 9.192677966394240e-01, -1.802058110727142e-01, 8.792847067048559e-01
40, 6.363800168040000e-01, -4.233084266562091e-02, 9.136289547494154e-01, -1.927925117200549e-01, 8.850906865008583e-01
41, 6.211299896240000e-01, -4.367359094194759e-02, 9.083361489768060e-01, -2.046068103196294e-01, 8.905396488825438e-01
42, 6.057599782940000e-01, -4.498807223669178e-02, 9.028093199311721e-01, -2.169434822964909e-01, 8.963200678154705e-01
43, 5.902799963950000e-01, -4.627132533375768e-02, 8.970622157506793e-01, -2.297718398422336e-01, 9.021673951981650e-01
44, 5.747100114820000e-01, -4.751950934859488e-02, 8.891453392567997e-01, -2.474434391589292e-01, 9.103043594217195e-01
45, 5.590599775310000e-01, -4.872955796694115e-02, 8.804533041840352e-01, -2.668453031606356e-01, 9.190044771892029e-01
46, 5.433599948880000e-01, -4.989683951066199e-02, 8.724882820571835e-01, -2.846243704080725e-01, 9.269182989730124e-01
47, 5.276100039480000e-01, -5.101897737545535e-02, 8.658818241675927e-01, -2.993709281973376e-01, 9.339664900896097e-01
48, 5.118399858470000e-01, -5.209138375948307e-02, 8.620450554168335e-01, -3.079351441588538e-01, 9.379368539081125e-01
49, 4.960500001910000e-01, -5.311153541819326e-02, 8.570514368061652e-01, -3.190816142719526e-01, 9.436862320504810e-01
50, 4.802699983120000e-01, -5.407492053959814e-02, 8.494057005496098e-01, -3.361479898446209e-01, 9.521044328171742e-01
51, 4.645099937920000e-01, -5.497835513414191e-02, 8.419712259927569e-01, -3.527427991233106e-01, 9.594035025919418e-01
52, 4.487800002100000e-01, -5.581859897363720e-02, 8.397701420405665e-01, -3.576559329451640e-01, 9.613476967801438e-01
53, 4.331099987030000e-01, -5.659141825851464e-02, 8.454842939734799e-01, -3.449011295234823e-01, 9.548194791382832e-01
54, 4.174999892710000e-01, -5.729416860686566e-02, 8.507471316882640e-01, -3.331537239101250e-01, 9.490476485094591e-01
55, 4.019699990750000e-01, -5.792324246601335e-02, 8.360947817195474e-01, -3.658598622331531e-01, 9.646749317252485e-01
56, 3.865399956700000e-01, -5.847520956655861e-02, 7.871520274365194e-01, -4.751070816149122e-01, 1.018187265275749e+00
57, 3.712300062180000e-01, -5.894684318665333e-02, 7.274739223631590e-01, -6.083171375822344e-01, 1.085925050813119e+00
58, 3.560400009160000e-01, -5.933561549045978e-02, 6.951400829818254e-01, -6.804908862012826e-01, 1.122364691508221e+00
59, 3.409900069240000e-01, -5.963847719943702e-02, 6.896461048985743e-01, -6.927542301371110e-01, 1.128419935590022e+00
60, 3.261100053790000e-01, -5.985254444802346e-02, 6.945964674029879e-01, -6.817043138326164e-01, 1.122008859053960e+00
61, 3.113999962810000e-01, -5.997565198183213e-02, 7.001387295510622e-01, -6.693331929663792e-01, 1.115333000313073e+00
62, 2.968699932100000e-01, -6.000550062925582e-02, 7.041910969905238e-01, -6.602877299318665e-01, 1.110790655826974e+00
63, 2.825500071050000e-01, -5.994005483718394e-02, 7.079680992788374e-01, -6.518569212525951e-01, 1.106497664001145e+00
64, 2.684499919410000e-01, -5.977765596976551e-02, 7.123597899261772e-01, -6.420540403433544e-01, 1.101498915064734e+00
65, 2.545700073240000e-01, -5.951657836311273e-02, 7.175036011787793e-01, -6.305723187973676e-01, 1.095625263504788e+00
66, 2.409400045870000e-01, -5.915585896897953e-02, 7.233547182776106e-01, -6.175117895589051e-01, 1.088983282405593e+00
67, 2.275699973110000e-01, -5.869456802648413e-02, 7.297532434029484e-01, -6.032293674041329e-01, 1.081747635117736e+00
68, 2.144699990750000e-01, -5.813197420944613e-02, 7.365338960487520e-01, -5.880939820340358e-01, 1.074131383441607e+00
69, 2.016600072380000e-01, -5.746811193675738e-02, 7.435966475351102e-01, -5.723289117519861e-01, 1.066235213216912e+00
70, 1.891400069000000e-01, -5.670228146432130e-02, 7.510103693281900e-01, -5.557804256067188e-01, 1.057992007687942e+00
71, 1.769299954180000e-01, -5.583513598033686e-02, 7.590634397038999e-01, -5.378048220895092e-01, 1.049069012668520e+00
72, 1.650400012730000e-01, -5.486709202536137e-02, 7.680763832107871e-01, -5.176866446187789e-01, 1.039137125607559e+00
73, 1.534900069240000e-01, -5.379977779145956e-02, 7.781068528148422e-01, -4.952972035382988e-01, 1.028136092500621e+00
74, 1.422899961470000e-01, -5.263443049277360e-02, 7.889715444565611e-01, -4.710456596951760e-01, 1.016311088948013e+00
75, 1.314399987460000e-01, -5.137133628795417e-02, 8.004623339429309e-01, -4.453965760202436e-01, 1.003842644095579e+00
76, 1.209499984980000e-01, -5.001187382363489e-02, 8.126238131739301e-01, -4.182504170224776e-01, 9.907708334454799e-01
77, 1.108499988910000e-01, -4.856066993422563e-02, 8.257075354681900e-01, -3.890456797585045e-01, 9.768404531550859e-01
78, 1.011300012470000e-01, -4.701715290498424e-02, 8.398339325727899e-01, -3.575135433643082e-01, 9.618397496425298e-01
79, 9.181000292300000e-02, -4.538527151431038e-02, 8.550589158276792e-01, -3.235292057417875e-01, 9.457132978145147e-01
80, 8.290000259900000e-02, -4.366791468532204e-02, 8.715031370056111e-01, -2.868233548981895e-01, 9.284419576361332e-01
81, 7.440000027400000e-02, -4.186607976498817e-02, 8.892681373396732e-01, -2.471693362953722e-01, 9.098692562802647e-01
82, 6.633000075800000e-02, -3.998513962421356e-02, 9.085440440349614e-01, -2.041427588505327e-01, 8.898476255909578e-01
83, 5.869000032500000e-02, -3.802635805630503e-02, 9.295093153880832e-01, -1.573452781515999e-01, 8.681654851992490e-01
84, 5.149000138000000e-02, -3.599337852580232e-02, 9.524258529152001e-01, -1.061922925999998e-01, 8.445547502844050e-01
113, 4.473999887700000e-02, 2.460891024850906e-02, 6.979461225845858e-01, -6.742274049451210e-01, 1.111407555663920e+00
114, 5.149000138000000e-02, 2.601928281033304e-02, 6.968333605687222e-01, -6.767112487305307e-01, 1.113010627123167e+00
115, 5.869000032500000e-02, 2.739754421040781e-02, 6.955396745926939e-01, -6.795989406413082e-01, 1.114834755987428e+00
116, 6.633000075800000e-02, 2.874126897941350e-02, 6.940491888716842e-01, -6.829259176971335e-01, 1.116811499517912e+00
117, 7.440000027400000e-02, 3.004785509302360e-02, 6.921902369754253e-01, -6.870753638941400e-01, 1.119151017385188e+00
118, 8.290000259900000e-02, 3.131609609693727e-02, 6.897690077830271e-01, -6.924798933414574e-01, 1.122172207034342e+00
119, 9.181000292300000e-02, 3.254177882163907e-02, 6.866797332405206e-01, -6.993755954452666e-01, 1.125986872338712e+00
120, 1.011300012470000e-01, 3.372377286321626e-02, 6.831471617348962e-01, -7.072607996988924e-01, 1.130356326411623e+00
121, 1.108499988910000e-01, 3.485969702766259e-02, 6.796566515677082e-01, -7.150521170363657e-01, 1.134716107583016e+00
122, 1.209499984980000e-01, 3.594648584816655e-02, 6.765193975143926e-01, -7.220549162625165e-01, 1.138634750751572e+00
123, 1.314399987460000e-01, 3.698462700860283e-02, 6.736626144947399e-01, -7.284316640742414e-01, 1.142101007630843e+00
124, 1.422899961470000e-01, 3.797085209737283e-02, 6.707704269961231e-01, -7.348874397407966e-01, 1.145629256248153e+00
125, 1.534900069240000e-01, 3.890448446064472e-02, 6.678116620074181e-01, -7.414918258762988e-01, 1.149239310809181e+00
126, 1.650400012730000e-01, 3.978590879778119e-02, 6.649946787776946e-01, -7.477797348712175e-01, 1.152724471692956e+00
127, 1.769299954180000e-01, 4.061490794108451e-02, 6.624166751620345e-01, -7.535342072276016e-01, 1.155873428861010e+00
128, 1.891400069000000e-01, 4.139097076365970e-02, 6.600158107095132e-01, -7.588932796662652e-01, 1.158827370358287e+00
129, 2.016600072380000e-01, 4.211463427849978e-02, 6.578366285523662e-01, -7.637575255527539e-01, 1.161498308157156e+00
130, 2.144699990750000e-01, 4.278615589741809e-02, 6.560669516631097e-01, -7.677076971805588e-01, 1.163718451036615e+00
131, 2.275699973110000e-01, 4.340706407926440e-02, 6.549000416085302e-01, -7.703124071238165e-01, 1.165207928393294e+00
132, 2.409400045870000e-01, 4.397800743321852e-02, 6.543365229969690e-01, -7.715702611674800e-01, 1.165980651008488e+00
133, 2.545700073240000e-01, 4.450024681965850e-02, 6.542568386673461e-01, -7.717481279746740e-01, 1.166152095164058e+00
134, 2.684499919410000e-01, 4.497505013328611e-02, 6.545081024104792e-01, -7.711872714051804e-01, 1.165907254980744e+00
135, 2.825500071050000e-01, 4.540306025366343e-02, 6.549835199710984e-01, -7.701260714930840e-01, 1.165395014162832e+00
136, 2.968699932100000e-01, 4.578581880550341e-02, 6.557079786462063e-01, -7.685089762361466e-01, 1.164559885983295e+00
137, 3.113999962810000e-01, 4.612428726628489e-02, 6.565796540920424e-01, -7.665632721159767e-01, 1.163546904445176e+00
138, 3.261100053790000e-01, 4.641874807576116e-02, 6.575201416074666e-01, -7.644639696261906e-01, 1.162451118049039e+00
139, 3.409900069240000e-01, 4.666963493789408e-02, 6.583147421908816e-01, -7.626903076096393e-01, 1.161514075652671e+00
140, 3.560400009160000e-01, 4.687699364333460e-02, 6.587997469387151e-01, -7.616077077260823e-01, 1.160990402800342e+00
141, 3.712300062180000e-01, 4.703986923809509e-02, 6.594354903832419e-01, -7.601886375374065e-01, 1.160319124405943e+00
142, 3.865399956700000e-01, 4.715692235256737e-02, 6.604599540568107e-01, -7.579018882660477e-01, 1.158894434746107e+00
143, 4.019699990750000e-01, 4.722623602510337e-02, 6.602936899454847e-01, -7.582730135145432e-01, 1.158430708338680e+00
144, 4.174999892710000e-01, 4.724495743350508e-02, 6.549902907844574e-01, -7.701109580704077e-01, 1.164985341133453e+00
145, 4.331099987030000e-01, 4.720952616519239e-02, 6.437474548064587e-01, -7.952065740927262e-01, 1.180024934606410e+00
146, 4.487800002100000e-01, 4.711569686703613e-02, 6.399937180880061e-01, -8.035854506964150e-01, 1.183492166428894e+00
147, 4.645099937920000e-01, 4.695836481409629e-02, 6.802754463729523e-01, -7.136708786318028e-01, 1.137170008439234e+00
148, 4.802699983120000e-01, 4.673206049290644e-02, 7.817441264750580e-01, -4.871782891181742e-01, 1.015046098482807e+00
85, 4.473999887700000e-02, -3.389028465845557e-02, 9.776961259541695e-01, -4.978543313801440e-02, 8.185478817984861e-01
86, 3.844000026600000e-02, -3.171811260404538e-02, 1.005656590576717e+00, 1.262631825159939e-02, 7.897466232733427e-01
87, 3.260000050100000e-02, -2.948109446637338e-02, 1.036804061031641e+00, 8.215192194562802e-02, 7.576676737700261e-01
88, 2.723000012300000e-02, -2.718419978786347e-02, 1.071809513586587e+00, 1.602890928272032e-01, 7.215373229588203e-01
89, 2.232000045500000e-02, -2.482329437156798e-02, 1.111193851016048e+00, 2.482005603036790e-01, 6.804994192190890e-01
90, 1.789999939500000e-02, -2.241364555514381e-02, 1.155664671866154e+00, 3.474657854155215e-01, 6.335768141243991e-01
91, 1.394999958600000e-02, -1.994492353858276e-02, 1.205974258156824e+00, 4.597639691000541e-01, 5.793636701225132e-01
92, 1.049000024800000e-02, -1.742916196961543e-02, 1.262042721615146e+00, 5.849167893195213e-01, 5.162938735859665e-01
93, 7.519999985000000e-03, -1.486756313872443e-02, 1.323359399362778e+00, 7.217843735776293e-01, 4.427346620594821e-01
94, 5.040000193000000e-03, -1.226032473458219e-02, 1.387531460685603e+00, 8.650255818875059e-01, 3.564606636189726e-01
95, 3.049999941000000e-03, -9.605565346412577e-03, 1.449856618969514e+00, 1.004144238771237e+00, 2.561341003206186e-01
96, 1.560000004000000e-03, -6.917517506923035e-03, 1.498111877118354e+00, 1.111856868567755e+00, 1.428196824923431e-01
97, 5.600000150000000e-04, -4.173159738460802e-03, 1.523560735754105e+00, 1.168662356593984e+00, 1.678516096635926e-02
98, 5.999999800000000e-05, -1.375329724321098e-03, 1.506489096907160e+00, 1.130556019882053e+00, 1.140903417849856e-01
99, 0.000000000000000e+00, 0.000000000000000e+00, 1.462688669449743e+00, 1.032787208593176e+00, 2.136840331444329e-01
100, 5.999999800000000e-05, 1.328970468166013e-03, 1.423283839267301e+00, 9.448299983645119e-01, 3.105809136020452e-01
101, 5.600000150000000e-04, 3.838326670310120e-03, 1.323921150838125e+00, 7.230382831208153e-01, 4.595847734853264e-01
102, 1.560000004000000e-03, 6.110150338275768e-03, 1.147547145644380e+00, 3.293463072419206e-01, 6.300993103933349e-01
103, 3.049999941000000e-03, 8.195660023752632e-03, 1.002301723783753e+00, 5.137776303019188e-03, 7.717292057400901e-01
104, 5.040000193000000e-03, 1.015019839007095e-02, 8.908607873557636e-01, -2.436143139380277e-01, 8.834935749346888e-01
105, 7.519999985000000e-03, 1.199215570405706e-02, 8.125157030222711e-01, -4.184917343252879e-01, 9.675764418255398e-01
106, 1.049000024800000e-02, 1.374649952141579e-02, 7.628271617861151e-01, -5.294036567274217e-01, 1.025441488808115e+00
107, 1.394999958600000e-02, 1.543190382421479e-02, 7.335490160136587e-01, -5.947566606837975e-01, 1.062182995790191e+00
108, 1.789999939500000e-02, 1.706248781567555e-02, 7.167303507136062e-01, -6.322983242999861e-01, 1.084385366479028e+00
109, 2.232000045500000e-02, 1.864205418757565e-02, 7.074037783028921e-01, -6.531165662881873e-01, 1.097224715782395e+00
110, 2.723000012300000e-02, 2.018632122118732e-02, 7.024764760209165e-01, -6.641150088818829e-01, 1.104358346777264e+00
111, 3.260000050100000e-02, 2.169189237706738e-02, 6.999838444351117e-01, -6.696789186716255e-01, 1.108069230103629e+00
112, 3.844000026600000e-02, 2.316613913126931e-02, 6.988360627549925e-01, -6.722409313504630e-01, 1.109967420675364e+00
199, 1.000000000000000e+00, 0.000000000000000e+00, 1.227502926865784e+00, 5.078190331825526e-01, 4.946669566319009e-01
0, 9.997500181200000e-01, -3.632896519016437e-05, 1.244640305820871e+00, 5.460721112073009e-01, 5.462003678363759e-01
1, 9.990000128750000e-01, -1.452537504052920e-04, 1.213542693590193e+00, 4.766577981923955e-01, 5.742932889812784e-01
2, 9.977599978450000e-01, -3.251111630156300e-04, 1.192769170271616e+00, 4.302883264991421e-01, 5.974904496706773e-01
3, 9.960200190539999e-01, -5.769983605901485e-04, 1.175897070850550e+00, 3.926273902914064e-01, 6.160594687576080e-01
4, 9.937800168990000e-01, -9.004365425509819e-04, 1.161682329583822e+00, 3.608980571067463e-01, 6.312343921578217e-01
5, 9.910500049590000e-01, -1.293363843462116e-03, 1.149344233037806e+00, 3.333576630308172e-01, 6.444335183128573e-01
6, 9.878399968150000e-01, -1.753609743384430e-03, 1.138129201950003e+00, 3.083241114955432e-01, 6.561150408008573e-01
7, 9.841300249100000e-01, -2.283176811071472e-03, 1.127845702753721e+00, 2.853698722181282e-01, 6.668426496158273e-01
183, 9.375399947170000e-01, 7.123079373883576e-03, 1.075025173891456e+00, 1.674669060077138e-01, 7.151641251905007e-01
184, 9.449599981310000e-01, 6.468279921630843e-03, 1.074297578651185e+00, 1.658428094892528e-01, 7.159466330417811e-01
185, 9.519400000570000e-01, 5.826085812289199e-03, 1.073709561571677e+00, 1.645302713653494e-01, 7.166285789638391e-01
186, 9.584699869160000e-01, 5.186470744487777e-03, 1.073175430354865e+00, 1.633380141849667e-01, 7.174567675666355e-01
187, 9.645400047300000e-01, 4.535548145201384e-03, 1.072886313663188e+00, 1.626926644267591e-01, 7.184040381605807e-01
