"Global_Index", "x_coord", "y_coord", "Pressure", "Pressure_Coefficient", "Mach_Number"
149, 4.960500001910000e-01, 4.664927201192572e-02, 7.823463369342939e-01, -4.858340693430940e-01, 1.022168296456036e+00
150, 5.118399858470000e-01, 4.624981442737169e-02, 7.886761384322414e-01, -4.717050481423183e-01, 1.015357260622741e+00
151, 5.276100039480000e-01, 4.577096046148217e-02, 7.948851642137189e-01, -4.578456155943775e-01, 1.008736878940103e+00
152, 5.433599948880000e-01, 4.521102142068998e-02, 8.013746629232092e-01, -4.433601274035508e-01, 1.001854460594847e+00
153, 5.590599775310000e-01, 4.456963353093114e-02, 8.086143645477044e-01, -4.272000791345884e-01, 9.942008598034984e-01
154, 5.747100114820000e-01, 4.384567564435995e-02, 8.167004311289865e-01, -4.091508233727980e-01, 9.856533743045207e-01
155, 5.902799963950000e-01, 4.303979027457484e-02, 8.253324178977631e-01, -3.898829957639216e-01, 9.765385455010654e-01
156, 6.057599782940000e-01, 4.215224876605820e-02, 8.342049179600665e-01, -3.700783081248517e-01, 9.672230376957190e-01
157, 6.211299896240000e-01, 4.118443040516009e-02, 8.433329579897688e-01, -3.497032187728375e-01, 9.576569882629956e-01
158, 6.363800168040000e-01, 4.013772972030177e-02, 8.529319353622424e-01, -3.282769299949946e-01, 9.476472161581571e-01
159, 6.514999866490000e-01, 3.901409477120425e-02, 8.630782727879320e-01, -3.056288553840803e-01, 9.370954754361814e-01
160, 6.664699912070000e-01, 3.781688049603397e-02, 8.737011436763990e-01, -2.819170900080381e-01, 9.260933982838628e-01
161, 6.812700033190000e-01, 3.655030136166984e-02, 8.846904317727179e-01, -2.573874290787547e-01, 9.147452266253455e-01
162, 6.958900094030001e-01, 3.521850414529854e-02, 8.959797277224808e-01, -2.321881077623197e-01, 9.031289221842037e-01
163, 7.103199958800001e-01, 3.382629923074353e-02, 9.075558534404394e-01, -2.063485414275906e-01, 8.912554333873474e-01
164, 7.245299816130000e-01, 3.238124872793733e-02, 9.193813600469576e-01, -1.799523213237554e-01, 8.791608074317823e-01
165, 7.385200262070000e-01, 3.088869503668181e-02, 9.314386912394882e-01, -1.530386356261424e-01, 8.668634576851538e-01
166, 7.522799968720000e-01, 2.935558078070348e-02, 9.436637311501301e-01, -1.257506001113167e-01, 8.544174707606800e-01
167, 7.657799720760000e-01, 2.779180748965173e-02, 9.560215104142149e-01, -9.816627139684174e-02, 8.418834806052427e-01
168, 7.790099978450000e-01, 2.620575027780565e-02, 9.684366152944359e-01, -7.045398371777696e-02, 8.292656862457516e-01
169, 7.919700145720000e-01, 2.460505464408473e-02, 9.808814440914611e-01, -4.267534801013158e-02, 8.166647127455940e-01
170, 8.046399950980000e-01, 2.300024379313917e-02, 9.932505794537366e-01, -1.506567086219503e-02, 8.041540403579845e-01
171, 8.170099854470000e-01, 2.140095679622380e-02, 1.005439236623626e+00, 1.214115317773759e-02, 7.918090893728349e-01
172, 8.290500044819999e-01, 1.981954573629784e-02, 1.017339347948439e+00, 3.870390167062215e-02, 7.797765625800455e-01
173, 8.407700061800000e-01, 1.826280280341549e-02, 1.028833810517863e+00, 6.436118419165784e-02, 7.681584011390715e-01
174, 8.521599769590000e-01, 1.673917112083976e-02, 1.039851332219022e+00, 8.895386656031681e-02, 7.570243354423991e-01
175, 8.631799817090000e-01, 1.525948999401586e-02, 1.050358469734902e+00, 1.124072985154067e-01, 7.464027774600352e-01
176, 8.738499879840000e-01, 1.382424155712719e-02, 1.060425239929487e+00, 1.348777676997475e-01, 7.362001061949555e-01
177, 8.841500282290000e-01, 1.243664695125105e-02, 1.070301256169007e+00, 1.569224468058193e-01, 7.261694701761782e-01
178, 8.940600156780000e-01, 1.109790973187691e-02, 1.080376026262948e+00, 1.794107729083652e-01, 7.158628916854846e-01
179, 9.035800099370001e-01, 9.806340907925227e-03, 1.091200202195196e+00, 2.035718798999913e-01, 7.047368392605506e-01
180, 9.126999974250000e-01, 8.564646180746385e-03, 1.103223220932271e+00, 2.304089752952478e-01, 6.922799260468254e-01
181, 9.214000105860000e-01, 7.383770962928243e-03, 1.116572813502273e+00, 2.602071729961456e-01, 6.783966686811468e-01
182, 9.296900033950000e-01, 6.280276329073677e-03, 1.130694201396171e+00, 2.917281281164530e-01, 6.636668044412881e-01
31, 7.657799720760000e-01, -3.607095244502213e-02, 9.121464527709415e-01, -1.961016679220055e-01, 8.878251113447931e-01
32, 7.522799968720000e-01, -3.753646927993934e-02, 9.052555312081400e-01, -2.114831892675448e-01, 8.948634662652569e-01
33, 7.385200262070000e-01, -3.898160215308390e-02, 8.983500924217002e-01, -2.268971151301336e-01, 9.019318322816927e-01
34, 7.245299816130000e-01, -4.040047965493181e-02, 8.915003189873492e-01, -2.421867879746671e-01, 9.089578535981888e-01
35, 7.103199958800001e-01, -4.178947379149191e-02, 8.847721445668710e-01, -2.572050344489486e-01, 9.158722495881828e-01
36, 6.958900094030001e-01, -4.314602255189901e-02, 8.781861589684147e-01, -2.719058951597887e-01, 9.226642220783754e-01
37, 6.812700033190000e-01, -4.446492969214107e-02, 8.717540879651644e-01, -2.862631965063295e-01, 9.293045253175136e-01
38, 6.664699912070000e-01, -4.574319468463669e-02, 8.654883297660011e-01, -3.002492639151761e-01, 9.357854143445580e-01
39, 6.514999866490000e-01, -4.697804167725275e-02, 8.594060252630343e-01, -3.138258364664412e-01, 9.420989175398490e-01
40, 6.363800168040000e-01, -4.816616014056176e-02, 8.535134388868462e-01, -3.269789310561469e-01, 9.482181443515521e-01
41, 6.211299896240000e-01, -4.930463817854186e-02, 8.478141851947936e-01, -3.397004794759072e-01, 9.541631730862064e-01
42, 6.057599782940000e-01, -5.039162157537543e-02, 8.422942176986877e-01, -3.520218354940006e-01, 9.599207169726844e-01
43, 5.902799963950000e-01, -5.142547248239003e-02, 8.369643742130310e-01, -3.639188075601986e-01, 9.655056673674911e-01
44, 5.747100114820000e-01, -5.240413830784343e-02, 8.318552691211933e-01, -3.753230599973363e-01, 9.708540056807956e-01
45, 5.590599775310000e-01, -5.332645939680584e-02, 8.270225797673635e-01, -3.861103130192780e-01, 9.759366810089181e-01
46, 5.433599948880000e-01, -5.419034251877258e-02, 8.224608724168825e-01, -3.962926954980302e-01, 9.807319968778386e-01
47, 5.276100039480000e-01, -5.499559461865907e-02, 8.180704107168641e-01, -4.060928332212854e-01, 9.853809399298744e-01
48, 5.118399858470000e-01, -5.574057348719386e-02, 8.136685917966979e-01, -4.159183218823707e-01, 9.900433025518938e-01
49, 4.960500001910000e-01, -5.642521898693430e-02, 8.092300692629167e-01, -4.258257382524180e-01, 9.947801533204585e-01
50, 4.802699983120000e-01, -5.704819121660404e-02, 8.050407940793053e-01, -4.351767989301221e-01, 9.992356381006369e-01
51, 4.645099937920000e-01, -5.760909351013609e-02, 8.015594399365057e-01, -4.429476787131569e-01, 1.002933021316874e+00
52, 4.487800002100000e-01, -5.810745995136517e-02, 7.989428346665801e-01, -4.487883154763837e-01, 1.005673837073531e+00
53, 4.331099987030000e-01, -5.854221142171754e-02, 7.967889118984053e-01, -4.535961787982025e-01, 1.007928382306541e+00
54, 4.174999892710000e-01, -5.891311550947616e-02, 7.942038458227391e-01, -4.593664155742432e-01, 1.010680295177748e+00
55, 4.019699990750000e-01, -5.921928115468866e-02, 7.901835175159405e-01, -4.683403626876328e-01, 1.015067648829099e+00
56, 3.865399956700000e-01, -5.945982126877952e-02, 7.840867197190888e-01, -4.819492863413196e-01, 1.021778569122220e+00
57, 3.712300062180000e-01, -5.963384551018294e-02, 7.761271051319433e-01, -4.997162831876266e-01, 1.030588296218816e+00
58, 3.560400009160000e-01, -5.974056075181542e-02, 7.675066805052831e-01, -5.189583024435644e-01, 1.040099931642481e+00
59, 3.409900069240000e-01, -5.977881405380939e-02, 7.598689016754999e-01, -5.360069159029019e-01, 1.048499643895012e+00
60, 3.261100053790000e-01, -5.974750495547446e-02, 7.543449778670209e-01, -5.483371029753997e-01, 1.054545162286585e+00
61, 3.113999962810000e-01, -5.964547517034750e-02, 7.511658371877833e-01, -5.554333991344124e-01, 1.057970659608582e+00
62, 2.968699932100000e-01, -5.947136859180476e-02, 7.499470085444596e-01, -5.581539987846884e-01, 1.059250525133081e+00
63, 2.825500071050000e-01, -5.922408897807348e-02, 7.501338222306090e-01, -5.577370039495335e-01, 1.058972648029351e+00
64, 2.684499919410000e-01, -5.890235089089171e-02, 7.513109790535036e-01, -5.551094217555722e-01, 1.057637995001070e+00
65, 2.545700073240000e-01, -5.850447319804455e-02, 7.532414608747753e-01, -5.508003105473767e-01, 1.055458278082229e+00
66, 2.409400045870000e-01, -5.802959647123674e-02, 7.558481552657733e-01, -5.449817962817560e-01, 1.052562416532572e+00
67, 2.275699973110000e-01, -5.747643693720202e-02, 7.590403481620627e-01, -5.378563657096815e-01, 1.049010856208704e+00
68, 2.144699990750000e-01, -5.684370549600878e-02, 7.626943555275210e-01, -5.297000992689265e-01, 1.044981203660815e+00
69, 2.016600072380000e-01, -5.613072114482318e-02, 7.666787501484652e-01, -5.208063612757473e-01, 1.040584822483291e+00
70, 1.891400069000000e-01, -5.533580498622297e-02, 7.710089602158741e-01, -5.111407138038525e-01, 1.035836932439728e+00
71, 1.769299954180000e-01, -5.445853784967319e-02, 7.759124463014196e-01, -5.001954323629026e-01, 1.030456878432630e+00
72, 1.650400012730000e-01, -5.349808087010371e-02, 7.817065857729508e-01, -4.872620853282348e-01, 1.024128901607187e+00
73, 1.534900069240000e-01, -5.245465948353219e-02, 7.884973056552279e-01, -4.721042284481520e-01, 1.016718219103810e+00
74, 1.422899961470000e-01, -5.132799285750778e-02, 7.961749477991378e-01, -4.549666343769246e-01, 1.008398865166636e+00
75, 1.314399987460000e-01, -5.011682131901394e-02, 8.045779521398940e-01, -4.362099282591652e-01, 9.992896350839366e-01
76, 1.209499984980000e-01, -4.882089584749816e-02, 8.137665585398329e-01, -4.156996461164444e-01, 9.894191477114558e-01
77, 1.108499988910000e-01, -4.744300626479554e-02, 8.239851006428381e-01, -3.928904003508077e-01, 9.785364421694310e-01
78, 1.011300012470000e-01, -4.598097681016609e-02, 8.353564760885517e-01, -3.675078658737686e-01, 9.664303328003389e-01
79, 9.181000292300000e-02, -4.443692248845631e-02, 8.479468536767076e-01, -3.394043444716348e-01, 9.530445041072467e-01
80, 8.290000259900000e-02, -4.281196302698564e-02, 8.618898992105676e-01, -3.082814749764117e-01, 9.383364632629921e-01
81, 7.440000027400000e-02, -4.110545510938095e-02, 8.773036112098258e-01, -2.738758678352103e-01, 9.221462172649108e-01
82, 6.633000075800000e-02, -3.932093927947770e-02, 8.944014059781027e-01, -2.357111473703065e-01, 9.043024932832495e-01
83, 5.869000032500000e-02, -3.745811570050380e-02, 9.133829037155805e-01, -1.933417327777221e-01, 8.845822324412264e-01
84, 5.149000138000000e-02, -3.551900432398800e-02, 9.345465996302353e-01, -1.461013401110818e-01, 8.626764395371611e-01
113, 4.473999887700000e-02, 2.392074812182661e-02, 6.845609362567263e-01, -7.041050529983788e-01, 1.128368173469618e+00
114, 5.149000138000000e-02, 2.525673451193710e-02, 6.833002025585531e-01, -7.069191907175155e-01, 1.130144387323669e+00
115, 5.869000032500000e-02, 2.655524956149269e-02, 6.831732545646469e-01, -7.072025567753416e-01, 1.130575854979750e+00
116, 6.633000075800000e-02, 2.781702095351559e-02, 6.840452885501271e-01, -7.052560523434662e-01, 1.129740002123299e+00
117, 7.440000027400000e-02, 2.904271305935093e-02, 6.856106989849224e-01, -7.017618326229410e-01, 1.128018058516693e+00
118, 8.290000259900000e-02, 3.023423925564986e-02, 6.874306736423466e-01, -6.976993891911908e-01, 1.126022607927027e+00
119, 9.181000292300000e-02, 3.139049884019909e-02, 6.890966197773575e-01, -6.939807594255414e-01, 1.124217837197350e+00
120, 1.011300012470000e-01, 3.251299950988868e-02, 6.906200887305260e-01, -6.905801590836472e-01, 1.122616984791860e+00
121, 1.108499988910000e-01, 3.360170997795498e-02, 6.924099460008618e-01, -6.865849419623621e-01, 1.120747326282344e+00
122, 1.209499984980000e-01, 3.465549861954257e-02, 6.948182690788178e-01, -6.812092208062103e-01, 1.118133211492867e+00
123, 1.314399987460000e-01, 3.567622251784157e-02, 6.976809561509503e-01, -6.748192943059146e-01, 1.114898676796451e+00
124, 1.422899961470000e-01, 3.666159321590268e-02, 7.004640362945255e-01, -6.686070618425771e-01, 1.111744073374241e+00
125, 1.534900069240000e-01, 3.761134716711122e-02, 7.028678299248862e-01, -6.632414510605220e-01, 1.109041361806365e+00
126, 1.650400012730000e-01, 3.852584695710216e-02, 7.049999353635700e-01, -6.584822871348884e-01, 1.106687766782681e+00
127, 1.769299954180000e-01, 3.940440698216334e-02, 7.070597503836188e-01, -6.538844857508509e-01, 1.104416053188691e+00
128, 1.891400069000000e-01, 4.024555947172854e-02, 7.091730648731386e-01, -6.491672659081729e-01, 1.102096736412399e+00
129, 2.016600072380000e-01, 4.104851543059108e-02, 7.114381719332411e-01, -6.441112233633012e-01, 1.099593824458569e+00
130, 2.144699990750000e-01, 4.181177494390528e-02, 7.139193829468428e-01, -6.385728059222260e-01, 1.096853296806894e+00
131, 2.275699973110000e-01, 4.253492969438616e-02, 7.166032306249264e-01, -6.325820744979322e-01, 1.093873254750836e+00
132, 2.409400045870000e-01, 4.321627133203194e-02, 7.193913202469795e-01, -6.263586601629922e-01, 1.090783280389008e+00
133, 2.545700073240000e-01, 4.385455185232236e-02, 7.221606016671764e-01, -6.201772284214812e-01, 1.087708477437739e+00
134, 2.684499919410000e-01, 4.444836367785641e-02, 7.248486715284984e-01, -6.141770724810304e-01, 1.084738092202582e+00
135, 2.825500071050000e-01, 4.499540262743326e-02, 7.274273159201844e-01, -6.084211698210170e-01, 1.081889869953881e+00
136, 2.968699932100000e-01, 4.549449619768847e-02, 7.298795012358092e-01, -6.029475418843544e-01, 1.079193883949203e+00
137, 3.113999962810000e-01, 4.594386048919821e-02, 7.321576913189647e-01, -5.978622961630252e-01, 1.076697272439849e+00
138, 3.261100053790000e-01, 4.634104161278275e-02, 7.342700170121367e-01, -5.931472834550521e-01, 1.074399307545365e+00
139, 3.409900069240000e-01, 4.668415831496172e-02, 7.363649589401358e-01, -5.884710737943398e-01, 1.072131206954534e+00
140, 3.560400009160000e-01, 4.697134280063112e-02, 7.387094278851440e-01, -5.832378841849464e-01, 1.069611730377515e+00
141, 3.712300062180000e-01, 4.720002436276292e-02, 7.415172804292050e-01, -5.769703561848104e-01, 1.066566493849685e+00
142, 3.865399956700000e-01, 4.736790589802645e-02, 7.448498571719530e-01, -5.695315688126050e-01, 1.062937681461081e+00
143, 4.019699990750000e-01, 4.747282893661654e-02, 7.486622389288179e-01, -5.610217881053172e-01, 1.058776944111441e+00
144, 4.174999892710000e-01, 4.751235175767850e-02, 7.529608202257804e-01, -5.514267405674546e-01, 1.054087717624189e+00
145, 4.331099987030000e-01, 4.748411958296704e-02, 7.578303705832542e-01, -5.405572085195219e-01, 1.048784990132771e+00
146, 4.487800002100000e-01, 4.738589714316319e-02, 7.633224893872245e-01, -5.282980147606597e-01, 1.042801947256150e+00
147, 4.645099937920000e-01, 4.721534319848973e-02, 7.693904563815589e-01, -5.147534455768775e-01, 1.036218330782945e+00
148, 4.802699983120000e-01, 4.697047294431894e-02, 7.758287184949868e-01, -5.003823247879760e-01, 1.029216906772255e+00
85, 4.473999887700000e-02, -3.350612843469609e-02, 9.583290630705515e-01, -9.301548421751887e-02, 8.381112416712774e-01
86, 3.844000026600000e-02, -3.141917847715067e-02, 9.851165952728906e-01, -3.322188555158340e-02, 8.104443258778572e-01
87, 3.260000050100000e-02, -2.926099971935662e-02, 1.015446456745442e+00, 3.447869809250443e-02, 7.791748548288807e-01
88, 2.723000012300000e-02, -2.703528179904523e-02, 1.050082843168141e+00, 1.117920606431725e-01, 7.434607533703591e-01
89, 2.232000045500000e-02, -2.473699094958061e-02, 1.089620835466479e+00, 2.000465077376767e-01, 7.024277206309515e-01
90, 1.789999939500000e-02, -2.238012598482124e-02, 1.134892115010673e+00, 3.010984710059670e-01, 6.550335853071029e-01
91, 1.394999958600000e-02, -1.995386524249025e-02, 1.186696492321851e+00, 4.167332417898456e-01, 5.998694580251189e-01
92, 1.049000024800000e-02, -1.746947240396177e-02, 1.245069709474214e+00, 5.470306015049411e-01, 5.353367454948765e-01
93, 7.519999985000000e-03, -1.492785339722571e-02, 1.309377361184155e+00, 6.905744669289180e-01, 4.598658592830976e-01
94, 5.040000193000000e-03, -1.232918803182754e-02, 1.377181779065626e+00, 8.419236139857719e-01, 3.712566899976658e-01
95, 3.049999941000000e-03, -9.671942291095205e-03, 1.443416853089781e+00, 9.897697613611185e-01, 2.683054781076658e-01
96, 1.560000004000000e-03, -6.971349841625531e-03, 1.495270006726434e+00, 1.105513407871504e+00, 1.523977718909743e-01
97, 5.600000150000000e-04, -4.206259374079522e-03, 1.523657991549489e+00, 1.168879445422968e+00, 2.331034443499425e-02
98, 5.999999800000000e-05, -1.384017176602583e-03, 1.507270395483989e+00, 1.132299989919619e+00, 1.112617583378676e-01
99, 0.000000000000000e+00, 0.000000000000000e+00, 1.462207829592112e+00, 1.031713905339535e+00, 2.150624050532566e-01
100, 5.999999800000000e-05, 1.263719601343579e-03, 1.420638460894795e+00, 9.389251359258809e-01, 3.139602701726026e-01
101, 5.600000150000000e-04, 3.624970631330289e-03, 1.321067668718792e+00, 7.166689033901610e-01, 4.617157802418794e-01
102, 1.560000004000000e-03, 5.788708484772466e-03, 1.149902836392247e+00, 3.346045455184080e-01, 6.265093355061671e-01
103, 3.049999941000000e-03, 7.806692126074771e-03, 1.012958766345471e+00, 2.892581773542707e-02, 7.607704083868693e-01
104, 5.040000193000000e-03, 9.723944432019587e-03, 9.079153386632507e-01, -2.055461190552440e-01, 8.672590619397519e-01
105, 7.519999985000000e-03, 1.154821914055014e-02, 8.317341792556706e-01, -3.755933498757352e-01, 9.493505119945672e-01
106, 1.049000024800000e-02, 1.329450218585457e-02, 7.800236973540472e-01, -4.910185326918590e-01, 1.008907457542493e+00
107, 1.394999958600000e-02, 1.497330772944615e-02, 7.460618935099897e-01, -5.668261305580586e-01, 1.050169018463118e+00
108, 1.789999939500000e-02, 1.659255124622530e-02, 7.233626871427579e-01, -6.174940019134869e-01, 1.078499501222031e+00
109, 2.232000045500000e-02, 1.815184999930674e-02, 7.080873245350671e-01, -6.515907934485110e-01, 1.097884002170258e+00
110, 2.723000012300000e-02, 1.966434970614150e-02, 6.978478129805963e-01, -6.744468460254548e-01, 1.111080022913820e+00
111, 3.260000050100000e-02, 2.112592585056873e-02, 6.911024833103168e-01, -6.895033854680429e-01, 1.119730615192542e+00
112, 3.844000026600000e-02, 2.254427284748102e-02, 6.869972625562131e-01, -6.986668246513101e-01, 1.125100624417291e+00
199, 1.000000000000000e+00, 0.000000000000000e+00, 1.279255341462949e+00, 6.233378157655113e-01, 4.554091338122941e-01
0, 9.997500181200000e-01, -3.633242778726413e-05, 1.290548643383679e+00, 6.485460789814255e-01, 4.935187585640372e-01
1, 9.990000128750000e-01, -1.454723262456218e-04, 1.264205737740132e+00, 5.897449503127954e-01, 5.210710947853174e-01
2, 9.977599978450000e-01, -3.275073576208507e-04, 1.248337822616501e+00, 5.543254969118325e-01, 5.398372139494035e-01
3, 9.960200190539999e-01, -5.899270542611306e-04, 1.238434835717630e+00, 5.322206154411384e-01, 5.517337304349681e-01
4, 9.937800168990000e-01, -9.470944818841029e-04, 1.231530037669207e+00, 5.168081197973363e-01, 5.596486191048848e-01
5, 9.910500049590000e-01, -1.422095487847127e-03, 1.224774278559820e+00, 5.017283003567413e-01, 5.674077947170327e-01
6, 9.878399968150000e-01, -2.045515766798120e-03, 1.214689743760969e+00, 4.792181780378771e-01, 5.780728442977426e-01
7, 9.841300249100000e-01, -2.853672048262052e-03, 1.198774344524933e+00, 4.436927333145822e-01, 5.946598049722043e-01
183, 9.375399947170000e-01, 5.285124549679429e-03, 1.144298180113353e+00, 3.220941520387343e-01, 6.495159975250190e-01
184, 9.449599981310000e-01, 4.427457615841954e-03, 1.155521798274557e+00, 3.471468711485656e-01, 6.379790475868202e-01
185, 9.519400000570000e-01, 3.732190744734222e-03, 1.162388856577627e+00, 3.624751262893460e-01, 6.311800758066698e-01
186, 9.584699869160000e-01, 3.205440134838685e-03, 1.163329653588169e+00, 3.645751196164491e-01, 6.306944899973960e-01
187, 9.645400047300000e-01, 2.827030464926328e-03, 1.157880588593275e+00, 3.524120281099884e-01, 6.368255684203951e-01
