"PointID"	"x"	"y"	"Conservative_1"	"Conservative_2"	"Conservative_3"	"Conservative_4"	"Pressure"	"Temperature"	"C<sub>p</sub>"	"Mach"
0	9.997500181200000e-01	-3.633228909808189e-05	1.199523644997125e+00	7.201104225339595e-01	1.010410680960929e-01	3.445648966155240e+00	1.290096536022968e+00	1.075507382787823e+00	6.475369107655544e-01	4.940298426250210e-01	
1	9.990000128750000e-01	-1.454635696528725e-04	1.181127419627286e+00	7.466968663567093e-01	1.067280126821297e-01	3.399611760879668e+00	1.263505042861739e+00	1.069744908013776e+00	5.881808992449530e-01	5.218372207638425e-01	
2	9.977599978450000e-01	-3.274113233847307e-04	1.170492674716910e+00	7.650759087462647e-01	1.128763674352605e-01	3.373802745381056e+00	1.247327853651520e+00	1.065643451338294e+00	5.520711019007137e-01	5.409308716110698e-01	
3	9.960200190539999e-01	-5.894085686806147e-04	1.163811674397736e+00	7.762284552242448e-01	1.196229035914350e-01	3.357683794636815e+00	1.237070069473324e+00	1.062946949826311e+00	5.291742622172418e-01	5.532021143917741e-01	
4	9.937800168990000e-01	-9.452215123304000e-04	1.159001481287598e+00	7.824893623653458e-01	1.297355192767563e-01	3.345946920391527e+00	1.229816196437028e+00	1.061099762418559e+00	5.129825813326523e-01	5.614885979154022e-01	
5	9.910500049590000e-01	-1.416920540012407e-03	1.154349298396640e+00	7.875893646327643e-01	1.438657263989282e-01	3.334609612861783e+00	1.222786584503544e+00	1.059286462253636e+00	4.972914832668391e-01	5.695333107753707e-01	
6	9.878399968150000e-01	-2.033757840478498e-03	1.147381195387082e+00	7.936188208444540e-01	1.616891743647897e-01	3.317306308678790e+00	1.212579666094634e+00	1.056823722551559e+00	4.745081832469498e-01	5.803237760849271e-01	
7	9.841300249100000e-01	-2.830628865345123e-03	1.136528129871583e+00	8.033374378220954e-01	1.813586218425443e-01	3.290279391867386e+00	1.196758443635412e+00	1.052995004858027e+00	4.391929545433293e-01	5.968084639689207e-01	
8	9.799500107769999e-01	-3.819064429838993e-03	1.120598584815707e+00	8.181711757223250e-01	1.998215079837343e-01	3.250533241732871e+00	1.173614402593634e+00	1.047310266581005e+00	3.875321486465043e-01	6.206878227044978e-01	
9	9.752799868580000e-01	-4.996281984462550e-03	1.099701232143190e+00	8.381608204142705e-01	2.132873605302882e-01	3.198344506470248e+00	1.143299933905944e+00	1.039645951544298e+00	3.198659238971954e-01	6.518847249714541e-01	
10	9.701499938960000e-01	-6.316969801823185e-03	1.075068652108615e+00	8.616297928826125e-01	2.187000351113437e-01	3.136718333289589e+00	1.107676144069328e+00	1.030330613674539e+00	2.403485358690360e-01	6.884775424630702e-01	
11	9.645400047300000e-01	-7.724889455816644e-03	1.049274741955063e+00	8.853592075886721e-01	2.145664612967819e-01	3.071960679873278e+00	1.070598877868605e+00	1.020322738231371e+00	1.575867809567073e-01	7.264250012257751e-01	
12	9.584699869160000e-01	-9.147425781525307e-03	1.026533922674359e+00	9.058642079628380e-01	2.018753840897435e-01	3.014710156999864e+00	1.038068150447917e+00	1.011236090224382e+00	8.497355010695760e-02	7.598443181365069e-01	
13	9.519400000570000e-01	-1.053131868577597e-02	1.010590129265744e+00	9.208690998638077e-01	1.843043145838557e-01	2.974555002681678e+00	1.015276860779443e+00	1.004637618533939e+00	3.410013566839934e-02	7.835786980972554e-01	
14	9.449599981310000e-01	-1.184965903490510e-02	1.002455995957955e+00	9.298193104743416e-01	1.663879181918927e-01	2.954093362523325e+00	1.003624765295330e+00	1.001165905877254e+00	8.090993962790826e-03	7.959039253292368e-01	
15	9.375399947170000e-01	-1.310668347820458e-02	1.000348100297629e+00	9.336938038567208e-01	1.516403750369428e-01	2.948778301036352e+00	1.000617808758836e+00	1.000269614608282e+00	1.379037408116548e-03	7.990687837293391e-01	
16	9.296900033950000e-01	-1.432869588084792e-02	1.001261953961784e+00	9.344826437785438e-01	1.416273818748203e-01	2.951030049121955e+00	1.001973974882297e+00	1.000711123515376e+00	4.406193933698914e-03	7.975106503449728e-01	
17	9.214000105860000e-01	-1.555265955574084e-02	1.002493090498516e+00	9.342041842369647e-01	1.361113506916614e-01	2.954052881694456e+00	1.003811696217637e+00	1.001315326491144e+00	8.508250485797113e-03	7.953756399524570e-01	
18	9.126999974250000e-01	-1.680475853815835e-02	1.002372307540220e+00	9.342641692331173e-01	1.337889647428603e-01	2.953654216618053e+00	1.003733507546648e+00	1.001357978463879e+00	8.333722202339352e-03	7.952248059395395e-01	
19	9.035800099370001e-01	-1.810535749503209e-02	1.000322849272135e+00	9.352531088038851e-01	1.330898113563039e-01	2.948372192186028e+00	1.000924226060220e+00	1.000601182696689e+00	2.063004598704419e-03	7.978987994606860e-01	
20	8.940600156780000e-01	-1.945793661924819e-02	9.965517937229645e-01	9.372223679168866e-01	1.327646442277362e-01	2.938736226680187e+00	9.956719820329019e-01	9.991171440404762e-01	-9.660754390844066e-03	8.031281847466801e-01	
21	8.841500282290000e-01	-2.085803597989523e-02	9.915902577870352e-01	9.398803191585103e-01	1.320754424474064e-01	2.926079803534428e+00	9.887401531123017e-01	9.971257234000120e-01	-2.513358680289804e-02	8.101165872039051e-01	
22	8.738499879840000e-01	-2.229773728451091e-02	9.859975514164521e-01	9.428631108859518e-01	1.307440441282592e-01	2.911807369301437e+00	9.809324606868298e-01	9.948629783894031e-01	-4.256147168118343e-02	8.180181607059844e-01	
23	8.631799817090000e-01	-2.376524812289478e-02	9.802260070313390e-01	9.458905255163617e-01	1.287947253295628e-01	2.897064099579409e+00	9.728895473393304e-01	9.925155427020069e-01	-6.051440326042318e-02	8.261731289714491e-01	
24	8.521599769590000e-01	-2.525013648636292e-02	9.745413708990014e-01	9.487795379430471e-01	1.263875010706004e-01	2.882520386814126e+00	9.649901927583400e-01	9.901993097205815e-01	-7.814689116441971e-02	8.341789085850051e-01	
25	8.407700061800000e-01	-2.674934185485063e-02	9.690516998619786e-01	9.514658475576480e-01	1.237136325065487e-01	2.868454169059656e+00	9.573830695990759e-01	9.879587123529484e-01	-9.512707678777695e-02	8.418860453419353e-01	
26	8.290500044819999e-01	-2.825368406134546e-02	9.637504240407220e-01	9.539429406662753e-01	1.209014671011499e-01	2.854848664747224e+00	9.500590213917830e-01	9.857936221791377e-01	-1.114753986790558e-01	8.492998534872284e-01	
27	8.170099854470000e-01	-2.975931258912095e-02	9.585949605032850e-01	9.562509694298763e-01	1.180376083176687e-01	2.841602344961956e+00	9.429514587441384e-01	9.836808011686884e-01	-1.273404938746910e-01	8.565038741804463e-01	
28	8.046399950980000e-01	-3.126537515813729e-02	9.535244418727428e-01	9.583995550002395e-01	1.151479059859339e-01	2.828554473953825e+00	9.359808115930580e-01	9.816012788877980e-01	-1.428999741226384e-01	8.635655826136096e-01	
29	7.919700145720000e-01	-3.276621299821105e-02	9.485092089890376e-01	9.604195182706720e-01	1.122215092412520e-01	2.815633127851154e+00	9.291019089393207e-01	9.795391548486896e-01	-1.582546675461593e-01	8.705408941886340e-01	
30	7.790099978450000e-01	-3.425856320685448e-02	9.435344171294187e-01	9.623451651066441e-01	1.092483375194847e-01	2.802807520237145e+00	9.222869298288883e-01	9.774809620986875e-01	-1.734666744890887e-01	8.774766159033401e-01	
31	7.657799720760000e-01	-3.573782637039710e-02	9.385590207288241e-01	9.641690803581828e-01	1.062094331512733e-01	2.789964890020169e+00	9.154865865643824e-01	9.754171728630077e-01	-1.886460121330750e-01	8.844056270624063e-01	
32	7.522799968720000e-01	-3.720147045810949e-02	9.335496220998712e-01	9.659041542904219e-01	1.030936810875348e-01	2.777019450919892e+00	9.086548106665286e-01	9.733331674674716e-01	-2.038955119050700e-01	8.913773246325044e-01	
33	7.385200262070000e-01	-3.864568466120854e-02	9.285217539541231e-01	9.675499584821553e-01	9.989453479146398e-02	2.764012337932534e+00	9.018117905943520e-01	9.712338852094460e-01	-2.191701102804643e-01	8.983753252230124e-01	
34	7.245299816130000e-01	-4.006463497074420e-02	9.235229234918679e-01	9.690940875668940e-01	9.659847040279705e-02	2.751065875645186e+00	8.950227612588841e-01	9.691397349128881e-01	-2.343241936185622e-01	9.053321812029719e-01	
35	7.103199958800001e-01	-4.145472425223543e-02	9.185981238728107e-01	9.705242119222497e-01	9.321993823300077e-02	2.738296096757566e+00	8.883493238949737e-01	9.670706926220273e-01	-2.492202591630052e-01	9.121827756042425e-01	
36	6.958900094030001e-01	-4.281341619814361e-02	9.137654360630295e-01	9.718557400980489e-01	8.975497970195144e-02	2.725754932154391e+00	8.818109316494863e-01	9.650298608894430e-01	-2.638148847109680e-01	9.189183926355291e-01	
37	6.812700033190000e-01	-4.413552546880138e-02	9.090270831008977e-01	9.730683339922321e-01	8.622110182357552e-02	2.713441869677990e+00	8.754168734606844e-01	9.630261735155777e-01	-2.780873360252580e-01	9.255112024402298e-01	
38	6.664699912070000e-01	-4.541805110503645e-02	9.043937086839914e-01	9.741734030257827e-01	8.262438408468631e-02	2.701387987446770e+00	8.691780925441764e-01	9.610616307901367e-01	-2.920131862853205e-01	9.319563434107635e-01	
39	6.514999866490000e-01	-4.665820309573257e-02	8.998793251499337e-01	9.751847717518106e-01	7.897557443884566e-02	2.689634162544717e+00	8.631090327850951e-01	9.591386407741815e-01	-3.055601946761270e-01	9.382475932976029e-01	
40	6.363800168040000e-01	-4.785263744289543e-02	8.954838569070263e-01	9.760841284060382e-01	7.528741191188647e-02	2.678173962854010e+00	8.572158280076944e-01	9.572655290163373e-01	-3.187146696256822e-01	9.443594295342723e-01	
41	6.211299896240000e-01	-4.899839104007382e-02	8.912166233326458e-01	9.769049069887102e-01	7.156503129040329e-02	2.667041700625587e+00	8.515009588234143e-01	9.554365757219415e-01	-3.314710740548789e-01	9.503121553318495e-01	
42	6.057599782940000e-01	-5.009354636112548e-02	8.870592475414727e-01	9.776219406522687e-01	6.782671230856428e-02	2.656180415361896e+00	8.459488337046895e-01	9.536553911695048e-01	-3.438642104806037e-01	9.560955296659783e-01	
43	5.902799963950000e-01	-5.113638721713970e-02	8.830233858614029e-01	9.782709879003026e-01	6.407323460458379e-02	2.645631375928869e+00	8.405642035963279e-01	9.519161293518232e-01	-3.558834741153395e-01	9.617299242465266e-01	
44	5.747100114820000e-01	-5.212476176014940e-02	8.791212279403466e-01	9.788199504123059e-01	6.031274559619797e-02	2.635415986473525e+00	8.353737885094302e-01	9.502373073922807e-01	-3.674692220771647e-01	9.671567847793576e-01	
45	5.590599775310000e-01	-5.305740289530830e-02	8.754059551502138e-01	9.793067457449239e-01	5.653518157357235e-02	2.625685644136917e+00	8.304361532059669e-01	9.486297737870309e-01	-3.784907294509668e-01	9.723426723483570e-01	
46	5.433599948880000e-01	-5.393208384009963e-02	8.718776251836589e-01	9.797082485630967e-01	5.274253103072227e-02	2.616432127549562e+00	8.257597462726243e-01	9.471051010153865e-01	-3.889291377843208e-01	9.772519648353258e-01	
47	5.276100039480000e-01	-5.474848772220606e-02	8.684800078501252e-01	9.800754257377741e-01	4.894370178090648e-02	2.607522655695881e+00	8.212553506499609e-01	9.456237831921241e-01	-3.989835922991944e-01	9.820132035623697e-01	
48	5.118399858470000e-01	-5.550481931005350e-02	8.650606105559797e-01	9.803805210194907e-01	4.516271259538209e-02	2.598546020728369e+00	8.167321306247740e-01	9.441328395473416e-01	-4.090800655697009e-01	9.867971615741455e-01	
49	4.960500001910000e-01	-5.620088077306143e-02	8.615817283300541e-01	9.806636251700211e-01	4.140754463819994e-02	2.589415926773923e+00	8.121275216471830e-01	9.426006784304438e-01	-4.193582106089664e-01	9.917049808050139e-01	
50	4.802699983120000e-01	-5.683516961444859e-02	8.582185332919212e-01	9.808641549692959e-01	3.764484392501564e-02	2.580573625337554e+00	8.076918557109138e-01	9.411260936218669e-01	-4.292592506452816e-01	9.964205258198414e-01	
51	4.645099937920000e-01	-5.740714029805739e-02	8.553238768214679e-01	9.810041308631569e-01	3.381752006322033e-02	2.572953618018396e+00	8.038836961345398e-01	9.398588276547493e-01	-4.377596068425451e-01	1.000467078603485e+00	
52	4.487800002100000e-01	-5.791617967648651e-02	8.530450405641752e-01	9.810662550123604e-01	2.990067909520838e-02	2.566935784230206e+00	8.009046347130725e-01	9.388773120155314e-01	-4.444092975154632e-01	1.003597447779881e+00	
53	4.331099987030000e-01	-5.836105266738374e-02	8.511360538871370e-01	9.811062409789325e-01	2.587801454087682e-02	2.561889774845611e+00	7.984139230548836e-01	9.380567529815341e-01	-4.499689217524920e-01	1.006212007022923e+00	
54	4.174999892710000e-01	-5.874139780353441e-02	8.489606845252922e-01	9.811461204170162e-01	2.177876889106557e-02	2.556149763139911e+00	7.955655291230306e-01	9.371052672102030e-01	-4.563269439218068e-01	1.009240967746974e+00	
55	4.019699990750000e-01	-5.905619105432462e-02	8.457763429495132e-01	9.812247511551041e-01	1.764817463464748e-02	2.547778608116218e+00	7.913648342579636e-01	9.356667880993245e-01	-4.657034949599028e-01	1.013814667478010e+00	
56	3.865399956700000e-01	-5.930442493453698e-02	8.410593206641409e-01	9.812714684994995e-01	1.353606882520521e-02	2.535382681400836e+00	7.851378541593509e-01	9.335106750132303e-01	-4.796030041085918e-01	1.020657890586254e+00	
57	3.712300062180000e-01	-5.948510356481872e-02	8.349240545418900e-01	9.812064551904226e-01	9.434153701441669e-03	2.519245234060284e+00	7.770531371815249e-01	9.306872079615459e-01	-4.976492473626676e-01	1.029597801093090e+00	
58	3.560400009160000e-01	-5.959735179577137e-02	8.282350182936844e-01	9.808918342571130e-01	5.236273428776268e-03	2.501595481832155e+00	7.682944285066248e-01	9.276285251611940e-01	-5.171999363691412e-01	1.039256269140792e+00	
59	3.409900069240000e-01	-5.963994206538679e-02	8.222678669638900e-01	9.804002590684718e-01	8.023714076431970e-04	2.485800229217844e+00	7.605312376168826e-01	9.249190782865429e-01	-5.345284874623157e-01	1.047790260139606e+00	
60	3.261100053790000e-01	-5.961171719143509e-02	8.179402921797451e-01	9.798968703121630e-01	-3.906116955432814e-03	2.474310130323891e+00	7.549359769172811e-01	9.229719872405816e-01	-5.470179086667832e-01	1.053911008408032e+00	
61	3.113999962810000e-01	-5.951148872377791e-02	8.154626961666843e-01	9.794847066156416e-01	-8.866735222334157e-03	2.467702429123380e+00	7.517620750284053e-01	9.218840770549998e-01	-5.541025110973096e-01	1.057326652300764e+00	
62	2.968699932100000e-01	-5.933788510641406e-02	8.145604139818388e-01	9.792393087645869e-01	-1.406610395606535e-02	2.465280778206406e+00	7.506214962006418e-01	9.215050023501113e-01	-5.566484459807103e-01	1.058516109734267e+00	
63	2.825500071050000e-01	-5.908981497675627e-02	8.147868216394947e-01	9.790948256840087e-01	-1.949033925800527e-02	2.465854815080180e+00	7.509413217179519e-01	9.216414671593801e-01	-5.559345497367145e-01	1.058087952954320e+00	
64	2.684499919410000e-01	-5.876601969297131e-02	8.158170239326955e-01	9.790505606424297e-01	-2.517612901712041e-02	2.468576966077438e+00	7.522864318445049e-01	9.221264202333787e-01	-5.529320717756586e-01	1.056566041352389e+00	
65	2.545700073240000e-01	-5.836486055140387e-02	8.174415357262169e-01	9.790136984412275e-01	-3.114996904939078e-02	2.472870515367775e+00	7.544064905931082e-01	9.228873963725025e-01	-5.481997977832407e-01	1.054176700837290e+00	
66	2.409400045870000e-01	-5.788554621286765e-02	8.196071901028403e-01	9.790053212545166e-01	-3.746749502785423e-02	2.478607350280089e+00	7.572197063925060e-01	9.238812391305328e-01	-5.419202982310134e-01	1.051053969464549e+00	
67	2.275699973110000e-01	-5.732687658253407e-02	8.222312568664945e-01	9.789524699412668e-01	-4.414480681991892e-02	2.485550033752377e+00	7.606368957700714e-01	9.250887623377910e-01	-5.342926433703763e-01	1.047256382689069e+00	
68	2.144699990750000e-01	-5.668766317951578e-02	8.252288636923460e-01	9.788678543675413e-01	-5.121523619454721e-02	2.493485314815067e+00	7.645362318301714e-01	9.264535760532955e-01	-5.255887682362246e-01	1.042959468557570e+00	
69	2.016600072380000e-01	-5.596734789796703e-02	8.284846434494209e-01	9.786844025441578e-01	-5.869719026743075e-02	2.502092910076906e+00	7.687825260772488e-01	9.279381726092106e-01	-5.161104328632838e-01	1.038279690504050e+00	
70	1.891400069000000e-01	-5.516437926314503e-02	8.320060548819286e-01	9.784144180992120e-01	-6.663462554671409e-02	2.511401891530546e+00	7.733761537543336e-01	9.295318816689199e-01	-5.058567996555055e-01	1.033249131680433e+00	
71	1.769299954180000e-01	-5.427849185544557e-02	8.359403365593191e-01	9.780023780827185e-01	-7.508807559983183e-02	2.521786425590980e+00	7.785242495748012e-01	9.313155682607219e-01	-4.943655143419617e-01	1.027610281858906e+00	
72	1.650400012730000e-01	-5.330900817449445e-02	8.405255501121741e-01	9.774475920797792e-01	-8.412619348774224e-02	2.533880040806324e+00	7.845331574514705e-01	9.333840682734381e-01	-4.809527735458249e-01	1.021059277799049e+00	
73	1.534900069240000e-01	-5.225633495610971e-02	8.458362913556682e-01	9.766695323889928e-01	-9.378066333770441e-02	2.547862617539838e+00	7.915175029742725e-01	9.357809673851476e-01	-4.653627165752847e-01	1.013451871895628e+00	
74	1.422899961470000e-01	-5.112037571772868e-02	8.518068293342219e-01	9.756552804138183e-01	-1.040936030726773e-01	2.563570133049657e+00	7.993818015943617e-01	9.384543232873165e-01	-4.478084785840141e-01	1.004945502034888e+00	
75	1.314399987460000e-01	-4.990005508336973e-02	8.582931070516144e-01	9.742661027098590e-01	-1.151134052624951e-01	2.580592546311096e+00	8.079673542213534e-01	9.413653070066722e-01	-4.286442986130506e-01	9.956560660901242e-01	
76	1.209499984980000e-01	-4.859532392861014e-02	8.653514555318911e-01	9.725222465856833e-01	-1.269476624046264e-01	2.599103021724114e+00	8.173233925133686e-01	9.444987782576714e-01	-4.077602845683737e-01	9.856237359534457e-01	
77	1.108499988910000e-01	-4.720919430119921e-02	8.731507980307838e-01	9.703284534984875e-01	-1.396592164767692e-01	2.619535966753558e+00	8.276824217342925e-01	9.479260897441361e-01	-3.846374514859542e-01	9.746095745448395e-01	
78	1.011300012470000e-01	-4.573968329723652e-02	8.817466523111652e-01	9.674591642105680e-01	-1.533223185190895e-01	2.641991292464771e+00	8.391637161680874e-01	9.517061550146376e-01	-3.590095621248049e-01	9.624093002928408e-01	
79	9.181000292300000e-02	-4.418912508213222e-02	8.911764071712029e-01	9.637590520138811e-01	-1.680566174370033e-01	2.666552076233220e+00	8.518318102046930e-01	9.558509441566138e-01	-3.307325665073817e-01	9.489647834681838e-01	
80	8.290000259900000e-02	-4.255884948421278e-02	9.015497987146713e-01	9.591410503399667e-01	-1.839776328591732e-01	2.693520934471410e+00	8.658173279695663e-01	9.603655052709810e-01	-2.995148929250752e-01	9.342357672566559e-01	
81	7.440000027400000e-02	-4.084841611983255e-02	9.129229017500281e-01	9.533196141146215e-01	-2.011944184811982e-01	2.723005956055589e+00	8.812335651510548e-01	9.652880472839204e-01	-2.651036492163956e-01	9.180674293719386e-01	
82	6.633000075800000e-02	-3.906157355292825e-02	9.254420956367339e-01	9.460361770607747e-01	-2.198588083953877e-01	2.755378374591035e+00	8.982871970419012e-01	9.706573769197856e-01	-2.270375066028991e-01	9.002928742408324e-01	
83	5.869000032500000e-02	-3.719821409501645e-02	9.392213243990571e-01	9.368843474433840e-01	-2.401037437771097e-01	2.790894992920326e+00	9.171712743030592e-01	9.765230521037138e-01	-1.848855484306714e-01	8.806958612518507e-01	
84	5.149000138000000e-02	-3.526054378189666e-02	9.544446545488481e-01	9.253607420589106e-01	-2.620481403038805e-01	2.829993056908682e+00	9.381752496669274e-01	9.829540615012290e-01	-1.380016748506084e-01	8.589749597507769e-01	
85	4.473999887700000e-02	-3.325125567962123e-02	9.713817793998072e-01	9.107516235471169e-01	-2.858120706791072e-01	2.873311886050614e+00	9.617245587273493e-01	9.900582645492644e-01	-8.543625284073818e-02	8.346651384791391e-01	
86	3.844000026600000e-02	-3.117019906596540e-02	9.902555648357473e-01	8.921471153203122e-01	-3.114735199362854e-01	2.921354553630923e+00	9.881960075626052e-01	9.979201760169017e-01	-2.634819740489917e-02	8.073325633957554e-01	
