"PointID"	"x"	"y"	"Conservative_1"	"Conservative_2"	"Conservative_3"	"Conservative_4"	"Pressure"	"Temperature"	"Pressure_Coefficient"	"Mach"
0	9.997500181200000e-01	-3.633244594498635e-05	1.199839729672216e+00	7.195295618438342e-01	1.010185590517017e-01	3.446423466115967e+00	1.290569710058893e+00	1.075618416479228e+00	6.485931028100297e-01	4.934813997232859e-01	
1	9.990000128750000e-01	-1.454734736300443e-04	1.181639745409002e+00	7.458641415251355e-01	1.066616163282548e-01	3.400874557477338e+00	1.264264697178873e+00	1.069923978175998e+00	5.898765562028413e-01	5.209908072780434e-01	
2	9.977599978450000e-01	-3.275199601028078e-04	1.171249255128569e+00	7.639055381011080e-01	1.128608614094484e-01	3.375670316024356e+00	1.248447059276740e+00	1.065910653782825e+00	5.545693287427228e-01	5.397028869096057e-01	
3	9.960200190539999e-01	-5.899952615547192e-04	1.164848926080871e+00	7.746581442479635e-01	1.197742799632285e-01	3.360247051583015e+00	1.238601686226653e+00	1.063315300803791e+00	5.325930496130650e-01	5.515380539893673e-01	
4	9.937800168990000e-01	-9.473417897523366e-04	1.160315377569098e+00	7.804887117650932e-01	1.302245688699674e-01	3.349194826546571e+00	1.231755364110572e+00	1.061569455962174e+00	5.173110806039560e-01	5.593902411153542e-01	
5	9.910500049590000e-01	-1.422782471408370e-03	1.155884767220684e+00	7.852050331925379e-01	1.449012111773013e-01	3.338407608510507e+00	1.225050437298230e+00	1.059837859308289e+00	5.023447261121211e-01	5.670959841793896e-01	
6	9.878399968150000e-01	-2.047088415043902e-03	1.149023599316473e+00	7.909652829540770e-01	1.634562150802084e-01	3.321369676255079e+00	1.215000330925815e+00	1.057419822924952e+00	4.799114529594076e-01	5.777256505016823e-01	
7	9.841300249100000e-01	-2.856786036912280e-03	1.138113271137569e+00	8.006041471153206e-01	1.839698008087219e-01	3.294200076154902e+00	1.199095719901490e+00	1.053582055767585e+00	4.444100890658259e-01	5.943026604475203e-01	
8	9.799500107769999e-01	-3.864335062471177e-03	1.121919064378887e+00	8.156150842315831e-01	2.032842761780516e-01	3.253796417642914e+00	1.175564300835923e+00	1.047815602889977e+00	3.918846000801851e-01	6.185919027390665e-01	
9	9.752799868580000e-01	-5.066950603863635e-03	1.100527733312911e+00	8.360544786919064e-01	2.174636228006968e-01	3.200377884511349e+00	1.144529397806463e+00	1.039982331350337e+00	3.226102629608539e-01	6.505372804923949e-01	
10	9.701499938960000e-01	-6.417696987299477e-03	1.075178587854313e+00	8.602048117943379e-01	2.233108878892809e-01	3.136962264600933e+00	1.107866044210094e+00	1.030401885533281e+00	2.407724201118176e-01	6.882023255942757e-01	
11	9.645400047300000e-01	-7.857893787582738e-03	1.048483516252733e+00	8.847297627432605e-01	2.192385166596987e-01	3.069938882219359e+00	1.069496708462949e+00	1.020041509365180e+00	1.551265813905106e-01	7.274730450084054e-01	
12	9.584699869160000e-01	-9.311914102361898e-03	1.024816502600979e+00	9.059687901289609e-01	2.062057629803238e-01	3.010340502376910e+00	1.035657207261068e+00	1.010578190956699e+00	7.959198049345517e-02	7.622296674381358e-01	
13	9.519400000570000e-01	-1.072416263666694e-02	1.008190338187432e+00	9.215274364097950e-01	1.880134327939536e-01	2.968451732930181e+00	1.011905520784033e+00	1.003685001190629e+00	2.657482317864523e-02	7.869712023813555e-01	
14	9.449599981310000e-01	-1.206654053162660e-02	9.997496122095177e-01	9.308107191595052e-01	1.694031273696823e-01	2.947213660269218e+00	9.998194252648979e-01	1.000069830540095e+00	-4.030686051386936e-04	7.997731363268449e-01	
15	9.375399947170000e-01	-1.334340422260299e-02	9.976494833312343e-01	9.348129484769235e-01	1.540576229590654e-01	2.941918924819051e+00	9.968228067960392e-01	9.991713757697397e-01	-7.091949115983963e-03	8.029372521791143e-01	
16	9.296900033950000e-01	-1.458209679513714e-02	9.987325602581529e-01	9.355933554038457e-01	1.436232383169221e-01	2.944598328078831e+00	9.984194150471881e-01	9.996864573926741e-01	-3.528091412526520e-03	8.011241065556504e-01	
17	9.214000105860000e-01	-1.582096176567778e-02	1.000154140991602e+00	9.352518614494457e-01	1.378605430014800e-01	2.948102102144478e+00	1.000528073088763e+00	1.000373874467781e+00	1.178734573132473e-03	7.987008294176898e-01	
18	9.126999974250000e-01	-1.708726891437787e-02	1.000158672435582e+00	9.352516971169549e-01	1.354150099505837e-01	2.948018802578066e+00	1.000629264102183e+00	1.000470517008522e+00	1.404607370944202e-03	7.983598246903334e-01	
19	9.035800099370001e-01	-1.840204762286625e-02	9.981438957274607e-01	9.362059756335666e-01	1.346505306243723e-01	2.942820629166321e+00	9.978730564910032e-01	9.997286571228692e-01	-4.747641761153530e-03	8.009754622342581e-01	
20	8.940600156780000e-01	-1.976889253168691e-02	9.943317541140950e-01	9.381680888937624e-01	1.342685592427203e-01	2.933074845339075e+00	9.925684224386006e-01	9.982266163499272e-01	-1.658834277098091e-02	8.062571552386192e-01	
21	8.841500282290000e-01	-2.118313289917209e-02	9.892820245897526e-01	9.408359775062443e-01	1.335049366095450e-01	2.920187597343133e+00	9.855192293249814e-01	9.961964382539635e-01	-3.232314882816658e-02	8.133664644305354e-01	
22	8.738499879840000e-01	-2.263651358049455e-02	9.835823796270988e-01	9.438331924530303e-01	1.320752138852178e-01	2.905635418556993e+00	9.775690864144828e-01	9.938863349555982e-01	-5.006900353910086e-02	8.214160069792804e-01	
23	8.631799817090000e-01	-2.411689722900975e-02	9.777060048762698e-01	9.468691142066981e-01	1.300085449239680e-01	2.890616386171417e+00	9.693880639538385e-01	9.914923904722425e-01	-6.833021438875340e-02	8.297142871795865e-01	
24	8.521599769590000e-01	-2.561361410822944e-02	9.719309867222111e-01	9.497577026127486e-01	1.274749471170713e-01	2.875833172796207e+00	9.613713843016126e-01	9.891354401034069e-01	-8.622458861247183e-02	8.378427093817570e-01	
25	8.407700061800000e-01	-2.712352220442766e-02	9.663671461370203e-01	9.524338587809902e-01	1.246750554731074e-01	2.861568327402181e+00	9.536700682894353e-01	9.868610207845533e-01	-1.034150261396532e-01	8.456487251985902e-01	
26	8.290500044819999e-01	-2.863738829244749e-02	9.610044284281840e-01	9.548934606635614e-01	1.217427776663665e-01	2.847796489693610e+00	9.462697810915290e-01	9.846674511575824e-01	-1.199335243492655e-01	8.531433025558236e-01	
27	8.170099854470000e-01	-3.015139040792060e-02	9.557949142432928e-01	9.571792491216440e-01	1.187671106157990e-01	2.834402654525504e+00	9.390963429150143e-01	9.825291272432658e-01	-1.359456631361288e-01	8.604180909030067e-01	
28	8.046399950980000e-01	-3.166472670469183e-02	9.506729654405199e-01	9.593018927873997e-01	1.157732885984331e-01	2.821213601455100e+00	9.320638298284941e-01	9.804253026134992e-01	-1.516432369899685e-01	8.675465578523792e-01	
29	7.919700145720000e-01	-3.317175134996343e-02	9.456067856578805e-01	9.612940614454643e-01	1.127482611992419e-01	2.808152172370292e+00	9.251238722212970e-01	9.783388679657868e-01	-1.671342137917478e-01	8.745886326611210e-01	
30	7.790099978450000e-01	-3.466920688246163e-02	9.405801494478542e-01	9.631908967540579e-01	1.096802114001162e-01	2.795184112786564e+00	9.182466653693419e-01	9.762556289417521e-01	-1.824851219434334e-01	8.815934738264796e-01	
31	7.657799720760000e-01	-3.615247376455123e-02	9.355487579847256e-01	9.649844835904750e-01	1.065480709593055e-01	2.782187804439961e+00	9.113789331591825e-01	9.741650826648444e-01	-1.978148813411105e-01	8.885971365706171e-01	
32	7.522799968720000e-01	-3.761898903318826e-02	9.304785348327951e-01	9.666894427446369e-01	1.033402543646142e-01	2.769076228281151e+00	9.044731584985606e-01	9.720516106920108e-01	-2.132295569228559e-01	8.956521938613150e-01	
33	7.385200262070000e-01	-3.906489623207757e-02	9.253862815823074e-01	9.683029987199506e-01	1.000490548574939e-01	2.755893181294053e+00	8.975518783664126e-01	9.699213141907606e-01	-2.286788429321148e-01	9.027383649923477e-01	
34	7.245299816130000e-01	-4.048431300606958e-02	9.203242834308683e-01	9.698124245752074e-01	9.666030447856717e-02	2.742773523917740e+00	8.906866582774560e-01	9.677965411898877e-01	-2.440029949163929e-01	9.097818991391338e-01	
35	7.103199958800001e-01	-4.187360260116203e-02	9.153418326984204e-01	9.712056984036098e-01	9.318900881358551e-02	2.729844738887527e+00	8.839446265990761e-01	9.656989280094571e-01	-2.590521727699194e-01	9.167123760600595e-01	
36	6.958900094030001e-01	-4.323019599454325e-02	9.104579322650204e-01	9.724971172689328e-01	8.963170444672203e-02	2.717160824482023e+00	8.773467998250922e-01	9.636324411413995e-01	-2.737794646761335e-01	9.235183282490389e-01	
37	6.812700033190000e-01	-4.454889274769916e-02	9.056776550933520e-01	9.736681030685790e-01	8.600714098902026e-02	2.704729317697312e+00	8.709056664510314e-01	9.616066616563084e-01	-2.881569945289478e-01	9.301699559587469e-01	
38	6.664699912070000e-01	-4.582669238268303e-02	9.010127869871335e-01	9.747284873876805e-01	8.232184688944917e-02	2.692583788796086e+00	8.646341967917778e-01	9.596247792253862e-01	-3.021558107326389e-01	9.366586323089016e-01	
39	6.514999866490000e-01	-4.706082341678800e-02	8.964805585626573e-01	9.756939110638080e-01	7.858811743881207e-02	2.680774153820410e+00	8.585504915968510e-01	9.576900284077325e-01	-3.157355098284575e-01	9.429755687523734e-01	
40	6.363800168040000e-01	-4.824798524698225e-02	8.920810469253390e-01	9.765451804924487e-01	7.481937606345092e-02	2.669294014079791e+00	8.526612647571310e-01	9.558114340573958e-01	-3.288811054528326e-01	9.490931597397774e-01	
41	6.211299896240000e-01	-4.938528168204873e-02	8.878254139237931e-01	9.773175278472561e-01	7.102295311379758e-02	2.658183097941920e+00	8.469708456999135e-01	9.539835562452303e-01	-3.415829337055502e-01	9.550308841764080e-01	
42	6.057599782940000e-01	-5.047087914528280e-02	8.836965534811270e-01	9.779844173362421e-01	6.721749283311024e-02	2.647387269818594e+00	8.414658370218775e-01	9.522112921082574e-01	-3.538708995047378e-01	9.607744803913539e-01	
43	5.902799963950000e-01	-5.150316580912916e-02	8.797121294920935e-01	9.785832493670079e-01	6.340485873480035e-02	2.636964139720812e+00	8.361583754828396e-01	9.504909020245069e-01	-3.657179118686617e-01	9.663376227640167e-01	
44	5.747100114820000e-01	-5.248012154020818e-02	8.758874733865145e-01	9.790813829679442e-01	5.959257872837597e-02	2.626943022128854e+00	8.310796656970821e-01	9.488429632219900e-01	-3.770543176404417e-01	9.716553723792242e-01	
45	5.590599775310000e-01	-5.340062325079138e-02	8.722738664935905e-01	9.795203598386407e-01	5.577252638115075e-02	2.617471364130536e+00	8.262847628123716e-01	9.472767608342000e-01	-3.877572258652419e-01	9.766995794816761e-01	
46	5.433599948880000e-01	-5.426262129379914e-02	8.688590359244743e-01	9.798775446283835e-01	5.194867452785910e-02	2.608508433317644e+00	8.217658861303775e-01	9.457988605205803e-01	-3.978440041732645e-01	9.814508126389183e-01	
47	5.276100039480000e-01	-5.506596660553152e-02	8.655774640151325e-01	9.802053304640747e-01	4.813352388782355e-02	2.599897550551121e+00	8.174210346484931e-01	9.443649686265431e-01	-4.075423333738993e-01	9.860527666471628e-01	
48	5.118399858470000e-01	-5.580906773359684e-02	8.622810388169554e-01	9.804716543217994e-01	4.435070483838516e-02	2.591237805700494e+00	8.130664240753018e-01	9.429250876150824e-01	-4.172624462604870e-01	9.906664339893518e-01	
49	4.960500001910000e-01	-5.649191403414900e-02	8.589608671804052e-01	9.807158369204722e-01	4.060478139374414e-02	2.582518427788827e+00	8.086776401881484e-01	9.414603983563133e-01	-4.270588388657403e-01	9.953519795108995e-01	
50	4.802699983120000e-01	-5.711321989597595e-02	8.558206496294036e-01	9.808789404188227e-01	3.685999750941038e-02	2.574255881663707e+00	8.045425237712480e-01	9.400830934841776e-01	-4.362890094391785e-01	9.997512079798593e-01	
51	4.645099937920000e-01	-5.767264089810734e-02	8.532188180400549e-01	9.809882098738295e-01	3.305999462195874e-02	2.567400547880832e+00	8.011258116625917e-01	9.389453147586139e-01	-4.439155989674293e-01	1.003380547867799e+00	
52	4.487800002100000e-01	-5.816976285100808e-02	8.512805716115792e-01	9.810279489999681e-01	2.918189009528550e-02	2.562274516457638e+00	7.985995978101630e-01	9.381156159811278e-01	-4.495544691737434e-01	1.006024398184164e+00	
53	4.331099987030000e-01	-5.860355797791814e-02	8.497292965559103e-01	9.810536028103435e-01	2.521059838471615e-02	2.558167173857361e+00	7.965825008241824e-01	9.374544387875758e-01	-4.540569178031644e-01	1.008129655826448e+00	
54	4.174999892710000e-01	-5.897384027157519e-02	8.479023267142121e-01	9.810842650838867e-01	2.117416987474105e-02	2.553342567027698e+00	7.941941943584804e-01	9.366576424387688e-01	-4.593879590212492e-01	1.010664820396581e+00	
55	4.019699990750000e-01	-5.927976267642346e-02	8.450326571719062e-01	9.811558391566338e-01	1.711523595212923e-02	2.545798476621735e+00	7.904087403702493e-01	9.353588097003634e-01	-4.678376331021221e-01	1.014792917328345e+00	
56	3.865399956700000e-01	-5.952047687722637e-02	8.405670936816347e-01	9.812012655492036e-01	1.308262122612168e-02	2.534064820582352e+00	7.845122534932025e-01	9.333130685107894e-01	-4.809994341669587e-01	1.021284225988858e+00	
57	3.712300062180000e-01	-5.969512507798223e-02	8.345785606034410e-01	9.811397233869047e-01	9.073087115532869e-03	2.518315472140370e+00	7.766187340608925e-01	9.305519824273457e-01	-4.986188971855077e-01	1.030025240257697e+00	
58	3.560400009160000e-01	-5.980294136289251e-02	8.278985037764788e-01	9.808294851758286e-01	4.985750713589836e-03	2.500692308940049e+00	7.678688850756384e-01	9.274915724246225e-01	-5.181498100990214e-01	1.039687977626408e+00	
59	3.409900069240000e-01	-5.984279241146253e-02	8.218225013981711e-01	9.803288907182680e-01	6.717428482441110e-04	2.484610334316352e+00	7.599626852190267e-01	9.247284954185340e-01	-5.357975776361013e-01	1.048389680579921e+00	
60	3.261100053790000e-01	-5.981358745681713e-02	8.173222248992862e-01	9.798054964074876e-01	-3.914586345576009e-03	2.472662609643760e+00	7.541432209754991e-01	9.227000049685764e-01	-5.487874531796895e-01	1.054765095566248e+00	
61	3.113999962810000e-01	-5.971417343632617e-02	8.146484136769714e-01	9.793690061518875e-01	-8.751996989543095e-03	2.465533956747934e+00	7.507156104309541e-01	9.215209872471831e-01	-5.564383695737631e-01	1.058465841093386e+00	
62	2.968699932100000e-01	-5.954319080264021e-02	8.135421112694343e-01	9.791000941237695e-01	-1.382650078860294e-02	2.462570552348332e+00	7.493113101229775e-01	9.210479700353407e-01	-5.595729684754968e-01	1.059949588992971e+00	
63	2.825500071050000e-01	-5.929952644316650e-02	8.135565794739996e-01	9.789349904213751e-01	-1.912445562246479e-02	2.462582245485959e+00	7.493567363977491e-01	9.210874268661703e-01	-5.594715705407386e-01	1.059825841884990e+00	
64	2.684499919410000e-01	-5.898187309503308e-02	8.143641429923401e-01	9.788743315221272e-01	-2.468384349720809e-02	2.464714543730376e+00	7.504127168422103e-01	9.214707244904679e-01	-5.571144713343520e-01	1.058623530435383e+00	
65	2.545700073240000e-01	-5.858852304495434e-02	8.157530454609307e-01	9.788255875157301e-01	-3.053323569799696e-02	2.468384751372666e+00	7.522259253379372e-01	9.221245688551513e-01	-5.530671309421045e-01	1.056571733232703e+00	
66	2.409400045870000e-01	-5.811857221968830e-02	8.176673152436139e-01	9.788112876590970e-01	-3.672999301609488e-02	2.473457763366510e+00	7.547104918399786e-01	9.230043536901340e-01	-5.475212235714763e-01	1.053809223871796e+00	
67	2.275699973110000e-01	-5.757068967855254e-02	8.200192914744733e-01	9.787590943343260e-01	-4.329136078699184e-02	2.479683265759423e+00	7.577706414908355e-01	9.240887981163119e-01	-5.406905323865279e-01	1.050401359947151e+00	
68	2.144699990750000e-01	-5.694353143707392e-02	8.227214810059105e-01	9.786827931860327e-01	-5.025126449664517e-02	2.486841382294762e+00	7.612808278801314e-01	9.253202273864812e-01	-5.328552949104209e-01	1.046527879203167e+00	
69	2.016600072380000e-01	-5.623634950091985e-02	8.256634681898766e-01	9.785146997197168e-01	-5.763049942054999e-02	2.494624473655888e+00	7.651127654694094e-01	9.266641857690351e-01	-5.243018627914968e-01	1.042295826247266e+00	
70	1.891400069000000e-01	-5.544739971023712e-02	8.288726420091793e-01	9.782693401043220e-01	-6.547789177476118e-02	2.503114510048894e+00	7.692926166712007e-01	9.281192039424092e-01	-5.149718377874983e-01	1.037708500995103e+00	
71	1.769299954180000e-01	-5.457618169300100e-02	8.325221429226718e-01	9.778940308680253e-01	-7.385962914360383e-02	2.512754294554090e+00	7.740611410393136e-01	9.297784420746774e-01	-5.043278101801036e-01	1.032470095210602e+00	
72	1.650400012730000e-01	-5.362177365903092e-02	8.368633848778669e-01	9.773922918545577e-01	-8.284679603974113e-02	2.524213516477263e+00	7.797412362096967e-01	9.317425643177034e-01	-4.916490263176413e-01	1.026258896617631e+00	
73	1.534900069240000e-01	-5.258430735469540e-02	8.419583204703787e-01	9.766842174287325e-01	-9.247209338198584e-02	2.537638971612013e+00	7.864306970727089e-01	9.340494392090005e-01	-4.767171940341320e-01	1.018949151525998e+00	
74	1.422899961470000e-01	-5.146340846779109e-02	8.477223835591040e-01	9.757570197037319e-01	-1.027783302172213e-01	2.552817381814667e+00	7.940089326444182e-01	9.366379230318617e-01	-4.598014896329951e-01	1.010727511060968e+00	
75	1.314399987460000e-01	-5.025772481867574e-02	8.540073507770954e-01	9.744695744323402e-01	-1.138195394296239e-01	2.569327237158439e+00	8.023122639407122e-01	9.394676324631824e-01	-4.412672679894817e-01	1.001714990184374e+00	
76	1.209499984980000e-01	-4.896690595219476e-02	8.608835766804045e-01	9.728416691545166e-01	-1.257087559550642e-01	2.587378749547854e+00	8.114082401655002e-01	9.425295848880255e-01	-4.209637496305800e-01	9.919323795580171e-01	
77	1.108499988910000e-01	-4.759362836501437e-02	8.685349962344202e-01	9.707793235578586e-01	-1.385149216099942e-01	2.607446458535476e+00	8.215485010973832e-01	9.459014370857256e-01	-3.983292386219125e-01	9.811212705887149e-01	
78	1.011300012470000e-01	-4.613562008426647e-02	8.770191402940578e-01	9.680489245221024e-01	-1.523147562319631e-01	2.629633259851301e+00	8.328572841016797e-01	9.496455046835458e-01	-3.730864194158935e-01	9.690669919579232e-01	
79	9.181000292300000e-02	-4.459488534612442e-02	8.863756906241044e-01	9.644965559017507e-01	-1.672351081021669e-01	2.654029627377694e+00	8.454007797621572e-01	9.537725241166122e-01	-3.450875451737562e-01	9.557154933248098e-01	
80	8.290000259900000e-02	-4.297243844407009e-02	8.967172378731285e-01	9.600304672862684e-01	-1.833962315146302e-01	2.680945340037064e+00	8.593137193839014e-01	9.582883913574115e-01	-3.140318763752200e-01	9.410237276765604e-01	
81	7.440000027400000e-02	-4.126753397906582e-02	9.081037981125398e-01	9.543556051238904e-01	-2.009125191865229e-01	2.710497291484869e+00	8.747161540784260e-01	9.632336698695582e-01	-2.796514417892278e-01	9.248292502056008e-01	
82	6.633000075800000e-02	-3.948360887443219e-02	9.206892589229017e-01	9.472066306861641e-01	-2.199420499981301e-01	2.743076421785108e+00	8.918246953622834e-01	9.686489624149779e-01	-2.414627335663318e-01	9.069590235417168e-01	
83	5.869000032500000e-02	-3.762026704958958e-02	9.345930578117947e-01	9.381612560517011e-01	-2.406209245581284e-01	2.778951653447855e+00	9.108419625730537e-01	9.745866984135851e-01	-1.990134763994337e-01	8.871866977513638e-01	
84	5.149000138000000e-02	-3.567943629625514e-02	9.500082217999174e-01	9.266984615734025e-01	-2.630713744722135e-01	2.818582012946957e+00	9.320710039954124e-01	9.811188815076566e-01	-1.516272232245258e-01	8.651996017605191e-01	
85	4.473999887700000e-02	-3.366355699228842e-02	9.672156324983912e-01	9.120832319828370e-01	-2.874113297933786e-01	2.862634271972783e+00	9.559539747007316e-01	9.883566213993362e-01	-9.831702075729548e-02	8.405198063105528e-01	
86	3.844000026600000e-02	-3.157224121647940e-02	9.864458260490656e-01	8.933734495596315e-01	-3.137091829809560e-01	2.911627941917162e+00	9.828815249137153e-01	9.963867238917459e-01	-3.821088188902840e-02	8.127015464384821e-01	
