"PointID"	"x"	"y"	"Conservative_1"	"Conservative_2"	"Conservative_3"	"Conservative_4"	"Pressure"	"Temperature"	"C<sub>p</sub>"	"Mach"
0	9.997500181200000e-01	-3.633236397249770e-05	1.199683493608600e+00	7.198544675269939e-01	1.010322659754446e-01	3.446047053340730e+00	1.290329258380432e+00	1.075558066152242e+00	6.480563803134634e-01	4.937793679573540e-01	
1	9.990000128750000e-01	-1.454682963996789e-04	1.181374091554835e+00	7.463335955363306e-01	1.067001295640585e-01	3.400226510629446e+00	1.263863886984415e+00	1.069825295830733e+00	5.889818905902126e-01	5.214571985279406e-01	
2	9.977599978450000e-01	-3.274631479222957e-04	1.170847260451184e+00	7.645640735596165e-01	1.128750939923503e-01	3.374684822656072e+00	1.247845418667027e+00	1.065762769249827e+00	5.532263809531851e-01	5.403826079119799e-01	
3	9.960200190539999e-01	-5.896882442359748e-04	1.164290986364910e+00	7.755386222957488e-01	1.197035972690976e-01	3.358875124638791e+00	1.237770805133518e+00	1.063111215004785e+00	5.307384043158891e-01	5.524603290482218e-01	
4	9.937800168990000e-01	-9.462311305383907e-04	1.159602693941914e+00	7.816085108994587e-01	1.299798074032326e-01	3.347440040169132e+00	1.230696409971032e+00	1.061308684776719e+00	5.149473436853399e-01	5.605558007090109e-01	
5	9.910500049590000e-01	-1.419707358671310e-03	1.155044153589175e+00	7.865415613601261e-01	1.443725696535076e-01	3.336335275226193e+00	1.223803959277102e+00	1.059530023570323e+00	4.995624091006735e-01	5.684575030417219e-01	
6	9.878399968150000e-01	-2.040081037558414e-03	1.148111428197171e+00	7.924612258127998e-01	1.625446621686021e-01	3.319119499856642e+00	1.213649185253518e+00	1.057083097900400e+00	4.768955027980309e-01	5.791941768980141e-01	
7	9.841300249100000e-01	-2.842997471555890e-03	1.137210412904794e+00	8.021641668278546e-01	1.826118136139674e-01	3.291972773656980e+00	1.197758467932662e+00	1.053242613979597e+00	4.414251516354054e-01	5.957523258216825e-01	
8	9.799500107769999e-01	-3.840380736029571e-03	1.121127874769757e+00	8.171075909922678e-01	2.014673134390948e-01	3.251845506183051e+00	1.174391527918008e+00	1.047508990140122e+00	3.892668033884116e-01	6.198640327939110e-01	
9	9.752799868580000e-01	-5.029369628301899e-03	1.099962905458147e+00	8.373376970958788e-01	2.152472620928035e-01	3.198989096469031e+00	1.143688182234809e+00	1.039751592130691e+00	3.207325496312702e-01	6.514615821634666e-01	
10	9.701499938960000e-01	-6.363782265634595e-03	1.074953205350718e+00	8.611540284779992e-01	2.208261704550830e-01	3.136419135653806e+00	1.107519307526488e+00	1.030295367290100e+00	2.399984543001964e-01	6.886132965911824e-01	
11	9.645400047300000e-01	-7.786109423308218e-03	1.048697040926287e+00	8.852751547238247e-01	2.166657684052115e-01	3.070496672261223e+00	1.069781867416003e+00	1.020105736611111e+00	1.557630969107203e-01	7.272336873617349e-01	
12	9.584699869160000e-01	-9.222216156184581e-03	1.025500708971834e+00	9.061287483615678e-01	2.037462335428653e-01	3.012089566910070e+00	1.036609353833545e+00	1.010832410708764e+00	8.171730766416251e-02	7.613083486976090e-01	
13	9.519400000570000e-01	-1.061768406748259e-02	1.009247131604744e+00	9.213827184698571e-01	1.858148496043464e-01	2.971146537870218e+00	1.013382908799805e+00	1.004097883526788e+00	2.987256428527945e-02	7.855017197649375e-01	
14	9.449599981310000e-01	-1.194505160201203e-02	1.001010125954392e+00	9.304648529943862e-01	1.675151018162225e-01	2.950424577062125e+00	1.001584993605114e+00	1.000574287547964e+00	3.537932154271315e-03	7.979935314061054e-01	
15	9.375399947170000e-01	-1.320868614664690e-02	9.989660980235318e-01	9.343649731855581e-01	1.524479362388377e-01	2.945272060108257e+00	9.986676441768729e-01	9.997012372619560e-01	-2.974008533765790e-03	8.010720012477747e-01	
16	9.296900033950000e-01	-1.443550532891035e-02	1.000025867328732e+00	9.351109059245890e-01	1.422189790666756e-01	2.947893426337779e+00	1.000230270024065e+00	1.000204397408118e+00	5.139955894304422e-04	7.992985953067211e-01	
17	9.214000105860000e-01	-1.566326256318352e-02	1.001409788764549e+00	9.347645585264172e-01	1.365878019457109e-01	2.951303123667188e+00	1.002284324377804e+00	1.000873304438470e+00	5.098938343311789e-03	7.969376702665948e-01	
18	9.126999974250000e-01	-1.691880570439902e-02	1.001402707351768e+00	9.347622067170891e-01	1.342225976400072e-01	2.951192052070883e+00	1.002367438403732e+00	1.000963379712160e+00	5.284460722616549e-03	7.966194541759046e-01	
19	9.035800099370001e-01	-1.822292589742249e-02	9.994145096455856e-01	9.357066178120755e-01	1.335167279161388e-01	2.946063882067733e+00	9.996461609674419e-01	1.000231787030927e+00	-7.898192691030029e-04	7.992019979288699e-01	
20	8.940600156780000e-01	-1.957924672607990e-02	9.956598764749192e-01	9.376507016309046e-01	1.331933733600462e-01	2.936467488170298e+00	9.944191821085717e-01	9.987538973944197e-01	-1.245718279336670e-02	8.044051480719249e-01	
21	8.841500282290000e-01	-2.098325772316260e-02	9.906847392241227e-01	9.402976949879612e-01	1.324988500908686e-01	2.923774000579021e+00	9.874707205005497e-01	9.967557603379559e-01	-2.796714173984434e-02	8.114111061869247e-01	
22	8.738499879840000e-01	-2.242689691558650e-02	9.850633656564949e-01	9.432767980646446e-01	1.311497140673436e-01	2.909425852298158e+00	9.796255646768565e-01	9.944797449897914e-01	-4.547865027487397e-02	8.193522129138550e-01	
23	8.631799817090000e-01	-2.389820723668060e-02	9.792593631999752e-01	9.463015527486489e-01	1.291713078420854e-01	2.894596719209468e+00	9.715403708572031e-01	9.921175200025170e-01	-6.352595790802873e-02	8.275514882215745e-01	
24	8.521599769590000e-01	-2.538662888493895e-02	9.735458347628585e-01	9.491861946766109e-01	1.267277587709850e-01	2.879976024983149e+00	9.636039315628618e-01	9.897879454207535e-01	-8.124122419004054e-02	8.355964122043491e-01	
25	8.407700061800000e-01	-2.688903665769832e-02	9.680333110799694e-01	9.518650233229256e-01	1.240148687225579e-01	2.865848044649767e+00	9.559683494727734e-01	9.875366255798206e-01	-9.828493421255932e-02	8.433337342944817e-01	
26	8.290500044819999e-01	-2.839621233099164e-02	9.627148915684964e-01	9.543319925242004e-01	1.211642075800656e-01	2.852195317489539e+00	9.486238416910632e-01	9.853632160457441e-01	-1.146789247967340e-01	8.507696350009405e-01	
27	8.170099854470000e-01	-2.990430678975997e-02	9.575462927457595e-01	9.566279227457489e-01	1.182642123624074e-01	2.838912008037291e+00	9.415014114935008e-01	9.832437539847291e-01	-1.305772064877215e-01	8.579901565003227e-01	
28	8.046399950980000e-01	-3.141248595119536e-02	9.524648532384569e-01	9.587629472904710e-01	1.153412054615588e-01	2.825832737654544e+00	9.345190490938725e-01	9.811585655013232e-01	-1.461628368440346e-01	8.650651684355519e-01	
29	7.919700145720000e-01	-3.291510434766774e-02	9.474398304774677e-01	9.607686331233256e-01	1.123840233594615e-01	2.812882890134949e+00	9.276299983820948e-01	9.790911977118488e-01	-1.615401821828241e-01	8.720524405266146e-01	
30	7.790099978450000e-01	-3.440891317374156e-02	9.424554993869618e-01	9.626797181028213e-01	1.093821987722428e-01	2.800029447354517e+00	9.208051945109482e-01	9.770277695975075e-01	-1.767741193952049e-01	8.790001488538138e-01	
31	7.657799720760000e-01	-3.588932065749215e-02	9.374692891094761e-01	9.644887485973447e-01	1.063161288295880e-01	2.787155555866242e+00	9.139934202730815e-01	9.749582529165359e-01	-1.919789726047288e-01	8.859428233487974e-01	
32	7.522799968720000e-01	-3.735379911324997e-02	9.324472747382800e-01	9.662093902120111e-01	1.031745361372291e-01	2.774174274436345e+00	9.071476806536917e-01	9.728675338863644e-01	-2.072596413980097e-01	8.929314552197314e-01	
33	7.385200262070000e-01	-3.879853712832405e-02	9.274049901246352e-01	9.678404223992249e-01	9.995041060464081e-02	2.761126497412068e+00	9.002884092223032e-01	9.707607990132903e-01	-2.225705151287874e-01	8.999488212299276e-01	
34	7.245299816130000e-01	-4.021769806747567e-02	9.223912120330690e-01	9.693695274506631e-01	9.662990603329809e-02	2.748137925580683e+00	8.934824770171725e-01	9.686589218991173e-01	-2.377623280866684e-01	9.069259643065496e-01	
35	7.103199958800001e-01	-4.160768314173572e-02	9.174519461377710e-01	9.707844128923320e-01	9.322750437236661e-02	2.735327271586362e+00	8.867928027228081e-01	9.665822896294138e-01	-2.526946367794461e-01	9.137964528601233e-01	
36	6.958900094030001e-01	-4.296595463465607e-02	9.126052153559088e-01	9.721001750412296e-01	8.973923332545064e-02	2.722746209973671e+00	8.802388666485014e-01	9.645341181895561e-01	-2.673239583738809e-01	9.205512094544468e-01	
37	6.812700033190000e-01	-4.428732820002841e-02	9.078538919473491e-01	9.732970616130651e-01	8.618280479629183e-02	2.710396120366262e+00	8.738306289994666e-01	9.625234156622909e-01	-2.816280602690477e-01	9.271621887635741e-01	
38	6.664699912070000e-01	-4.556880584131263e-02	9.032087555770431e-01	9.743858416172126e-01	8.256417319924936e-02	2.698308232991698e+00	8.675794177889981e-01	9.605524884828183e-01	-2.955816567209865e-01	9.336235390309883e-01	
39	6.514999866490000e-01	-4.680760273144218e-02	8.986846188404259e-01	9.753810325928441e-01	7.889429491185682e-02	2.686525753605366e+00	8.615005077645590e-01	9.586238483486615e-01	-3.091506523112523e-01	9.399287197129468e-01	
40	6.363800168040000e-01	-4.800038368180196e-02	8.942806991487106e-01	9.762639194972803e-01	7.518595200944701e-02	2.675040230332411e+00	8.555992610855283e-01	9.567457532070144e-01	-3.223230779340886e-01	9.460524624627240e-01	
41	6.211299896240000e-01	-4.914419766026542e-02	8.900058291768456e-01	9.770687071833029e-01	7.144486145725273e-02	2.663884941664059e+00	8.498772708909715e-01	9.549120275729113e-01	-3.350953774755100e-01	9.520165488828112e-01	
42	6.057599782940000e-01	-5.023714097566431e-02	8.858412355389843e-01	9.777694591007909e-01	6.768933079038653e-02	2.653001626332726e+00	8.443186806914799e-01	9.531264145518806e-01	-3.475029448850896e-01	9.578103149180166e-01	
43	5.902799963950000e-01	-5.127751384702850e-02	8.818012857016936e-01	9.784023111121287e-01	6.391997329301631e-02	2.642438837683075e+00	8.389316603446202e-01	9.513840294268116e-01	-3.595275438736157e-01	9.634510127535926e-01	
44	5.747100114820000e-01	-5.226318518826376e-02	8.779009636706435e-01	9.789346688130119e-01	6.014407840113878e-02	2.632225144698796e+00	8.337467978131939e-01	9.497048440716663e-01	-3.711008977384064e-01	9.688754551578073e-01	
45	5.590599775310000e-01	-5.319290971025840e-02	8.741927024113227e-01	9.794059449559118e-01	5.635169800617922e-02	2.622510406646996e+00	8.288212404658992e-01	9.480990154455953e-01	-3.820954453886178e-01	9.740524964743801e-01	
46	5.433599948880000e-01	-5.406448879205304e-02	8.706680402923879e-01	9.797938789613665e-01	5.254621502393545e-02	2.613264194432750e+00	8.241520106096216e-01	9.465743227842095e-01	-3.925178334606660e-01	9.789587572373377e-01	
47	5.276100039480000e-01	-5.487763014509926e-02	8.672618550354230e-01	9.801499609060954e-01	4.873944689428920e-02	2.604330564785656e+00	8.196379474778044e-01	9.450870492215143e-01	-4.025938672370438e-01	9.837361726978459e-01	
48	5.118399858470000e-01	-5.563057105474491e-02	8.638246065040198e-01	9.804431920459320e-01	4.495666697084123e-02	2.595305172903156e+00	8.150930080575577e-01	9.435862348912665e-01	-4.127388213000945e-01	9.885488347522057e-01	
49	4.960500001910000e-01	-5.632314141038867e-02	8.603495928665581e-01	9.807105128652093e-01	4.120222653802017e-02	2.586182369588914e+00	8.104963826103009e-01	9.420547058200451e-01	-4.229991459591498e-01	9.934516468550204e-01	
50	4.802699983120000e-01	-5.695387402292971e-02	8.570570505849855e-01	9.808908782430327e-01	3.743720464959838e-02	2.577521576659396e+00	8.061581475705517e-01	9.406120012901212e-01	-4.326827063157328e-01	9.980625799331160e-01	
51	4.645099937920000e-01	-5.752225492509533e-02	8.543219805513586e-01	9.810097158844863e-01	3.360073776772392e-02	2.570316227754175e+00	8.025653808475545e-01	9.394179233567167e-01	-4.407022748938517e-01	1.001873489695421e+00	
52	4.487800002100000e-01	-5.802770263760609e-02	8.522556199164298e-01	9.810541068700903e-01	2.966748302720607e-02	2.564852581777379e+00	7.998709904270872e-01	9.385341342841728e-01	-4.467165392252518e-01	1.004691016519870e+00	
53	4.331099987030000e-01	-5.846901796705039e-02	8.505206814242935e-01	9.810864449102551e-01	2.562640017419214e-02	2.560262547923434e+00	7.976114498044136e-01	9.377919517121239e-01	-4.517601566865769e-01	1.007055098338815e+00	
54	4.174999892710000e-01	-5.884586768779099e-02	8.483607720749555e-01	9.811320654129712e-01	2.152097055350109e-02	2.554565941810823e+00	7.947806872826687e-01	9.368428072631904e-01	-4.580788230297574e-01	1.010075790650315e+00	
55	4.019699990750000e-01	-5.915725929182625e-02	8.449535026912435e-01	9.812208161456070e-01	1.740836158644693e-02	2.545613738372677e+00	7.902809178846222e-01	9.352951557304815e-01	-4.681229511503969e-01	1.014995042345971e+00	
56	3.865399956700000e-01	-5.940221496537313e-02	8.398183997251447e-01	9.812622265777337e-01	1.333868459616465e-02	2.532120849370842e+00	7.835003097146448e-01	9.329401570280773e-01	-4.832582372440964e-01	1.022466070184778e+00	
57	3.712300062180000e-01	-5.957976616071106e-02	8.332556131490902e-01	9.811556141059561e-01	9.281097446920664e-03	2.514852344523324e+00	7.748587914261895e-01	9.299172777220142e-01	-5.025473405665413e-01	1.032031369617538e+00	
58	3.560400009160000e-01	-5.968905843650728e-02	8.263718432100068e-01	9.807735752607747e-01	5.095057012001817e-03	2.496674987322343e+00	7.658588764379847e-01	9.267727146450661e-01	-5.226364365223557e-01	1.041953811954197e+00	
59	3.409900069240000e-01	-5.972888618712450e-02	8.205214149680352e-01	9.802385769373959e-01	6.513326942535157e-04	2.481175279201819e+00	7.582609674896618e-01	9.241208744310486e-01	-5.395960547105765e-01	1.050300464554179e+00	
60	3.261100053790000e-01	-5.969811234734182e-02	8.165040253515123e-01	9.797306858662967e-01	-4.066391797387553e-03	2.470497948143400e+00	7.530775576690147e-01	9.223194672491765e-01	-5.511661659173778e-01	1.055959874587861e+00	
61	3.113999962810000e-01	-5.959555969209695e-02	8.143657488677413e-01	9.793406753673888e-01	-9.024610418395087e-03	2.464786299509099e+00	7.503472446927024e-01	9.213885109190223e-01	-5.572606145252178e-01	1.058881394506973e+00	
62	2.968699932100000e-01	-5.941986628942485e-02	8.137291357796925e-01	9.791252726793631e-01	-1.421099605647466e-02	2.463069774618615e+00	7.495504073847684e-01	9.211301088126460e-01	-5.590392692304277e-01	1.059691926682721e+00	
63	2.825500071050000e-01	-5.916994918761348e-02	8.141253170564483e-01	9.790070626336997e-01	-1.961682747898707e-02	2.464096562860179e+00	7.500877514594679e-01	9.213418815809409e-01	-5.578398404922591e-01	1.059027669493727e+00	
64	2.684499919410000e-01	-5.884455104027875e-02	8.152510567111054e-01	9.789808710062385e-01	-2.528336962809619e-02	2.467074434551420e+00	7.515543242075700e-01	9.218685679960951e-01	-5.545662406081028e-01	1.057375154377070e+00	
65	2.545700073240000e-01	-5.844202969411012e-02	8.169276986774852e-01	9.789565117805572e-01	-3.123946445860600e-02	2.471508212211875e+00	7.537399652420772e-01	9.226519880061581e-01	-5.496875775846491e-01	1.054915832035427e+00	
66	2.409400045870000e-01	-5.796158934686408e-02	8.191229542953075e-01	9.789566200508111e-01	-3.754054924906192e-02	2.477324891213044e+00	7.565902027897746e-01	9.236588949465716e-01	-5.433254402013959e-01	1.051752643524187e+00	
67	2.275699973110000e-01	-5.740201917235798e-02	8.217644592377830e-01	9.789110268215068e-01	-4.420274259047940e-02	2.484315081100242e+00	7.600287314456249e-01	9.248741812837464e-01	-5.356501530231588e-01	1.047931336962301e+00	
68	2.144699990750000e-01	-5.676211617589096e-02	8.247707058429349e-01	9.788326257874349e-01	-5.125862518627494e-02	2.492274385190023e+00	7.639381538104512e-01	9.262430738609814e-01	-5.269237638159573e-01	1.043622359753892e+00	
69	2.016600072380000e-01	-5.604130436639376e-02	8.280283941637283e-01	9.786553423690316e-01	-5.872703367913200e-02	2.500888265759244e+00	7.681856970470051e-01	9.277286895733069e-01	-5.174426405200778e-01	1.038940224710310e+00	
70	1.891400069000000e-01	-5.523800991973952e-02	8.315478047835811e-01	9.783912879542381e-01	-6.665217060465439e-02	2.510193108983794e+00	7.727755628822431e-01	9.293218723406600e-01	-5.071974042807073e-01	1.033912267969999e+00	
71	1.769299954180000e-01	-5.435194232770797e-02	8.354802292904787e-01	9.779858492784204e-01	-7.509554511497948e-02	2.520573990488745e+00	7.779199781924488e-01	9.311051906675134e-01	-4.957143343918552e-01	1.028275668189530e+00	
72	1.650400012730000e-01	-5.338239536691403e-02	8.400663549323250e-01	9.774384342999655e-01	-8.412601896569147e-02	2.532671333687654e+00	7.839287579649902e-01	9.331748062069967e-01	-4.823018795424326e-01	1.021722430168892e+00	
73	1.534900069240000e-01	-5.232974402750316e-02	8.453805693404534e-01	9.766688299970172e-01	-9.377560996499260e-02	2.546664591382840e+00	7.909161334192900e-01	9.355740622668262e-01	-4.667050593319420e-01	1.014109093008369e+00	
74	1.422899961470000e-01	-5.119385728373295e-02	8.513553842111269e-01	9.756637247475382e-01	-1.040864061592554e-01	2.562385041496927e+00	7.987843813112732e-01	9.382502256110516e-01	-4.491420060016224e-01	1.005595568780970e+00	
75	1.314399987460000e-01	-4.997362298454860e-02	8.578462530164526e-01	9.742841114743817e-01	-1.151075079842517e-01	2.579421331734738e+00	8.073741811696223e-01	9.411641985153463e-01	-4.299683456035216e-01	9.962985909254949e-01	
76	1.209499984980000e-01	-4.866895304455045e-02	8.649110197445473e-01	9.725498566883136e-01	-1.269471058048688e-01	2.597950554515021e+00	8.167368098349571e-01	9.443015422282187e-01	-4.090696209041136e-01	9.862560801120150e-01	
77	1.108499988910000e-01	-4.728281875216707e-02	8.727208367467990e-01	9.703657133520853e-01	-1.396688074644716e-01	2.618413065939389e+00	8.271076244120942e-01	9.477344754311873e-01	-3.859204812230041e-01	9.752263463199913e-01	
78	1.011300012470000e-01	-4.581319521351575e-02	8.813321961428948e-01	9.675046902383787e-01	-1.533471149926103e-01	2.640910988700862e+00	8.386075343309679e-01	9.515226358472899e-01	-3.602510394398038e-01	9.630027520662721e-01	
79	9.181000292300000e-02	-4.426237369278728e-02	8.907834095174718e-01	9.638109823360079e-01	-1.681024081646102e-01	2.665529877986282e+00	8.513022393441894e-01	9.556781483001926e-01	-3.319146443210059e-01	9.495265602271686e-01	
80	8.290000259900000e-02	-4.263164080599387e-02	9.011851025533447e-01	9.591963264998147e-01	-1.840505867320591e-01	2.692574565059990e+00	8.653236607657463e-01	9.602063530722031e-01	-3.006168286478877e-01	9.347564007953445e-01	
81	7.440000027400000e-02	-4.092051220269954e-02	9.125943542160023e-01	9.533732247557392e-01	-2.013010372945900e-01	2.722155495174462e+00	8.807867023337436e-01	9.651459032862590e-01	-2.661011108621795e-01	9.185357811163254e-01	
82	6.633000075800000e-02	-3.913269455166472e-02	9.251590057966080e-01	9.460810952933559e-01	-2.200058541178375e-01	2.754647572828832e+00	8.979001401608269e-01	9.705360208731797e-01	-2.279014728552972e-01	9.006961024338793e-01	
83	5.869000032500000e-02	-3.726803764422722e-02	9.389943037746835e-01	9.369104192757103e-01	-2.402976648446708e-01	2.790310640029534e+00	9.168591278387511e-01	9.764267196862105e-01	-1.855823039313591e-01	8.810191111598906e-01	
84	5.149000138000000e-02	-3.532870776081917e-02	9.542858321779673e-01	9.253540015061652e-01	-2.622944427147700e-01	2.829585525058137e+00	9.379555268049958e-01	9.828874066633677e-01	-1.384921276674200e-01	8.592012331212447e-01	
85	4.473999887700000e-02	-3.331736144847794e-02	9.713049990708789e-01	9.106929298666406e-01	-2.861141039634130e-01	2.873115479143252e+00	9.616176107547992e-01	9.900264197905436e-01	-8.567497599375171e-02	8.347746979875925e-01	
86	3.844000026600000e-02	-3.123381168365107e-02	9.902760164289198e-01	8.920103379188453e-01	-3.118307501089479e-01	2.921406320803654e+00	9.882247548413752e-01	9.979285961151099e-01	-2.628402937193041e-02	8.073028240218504e-01	
