"Global_Index", "x_coord", "y_coord", "Pressure", "Pressure_Coefficient", "Mach_Number"
149, 4.960500001910000e-01, 4.663582837575404e-02, 7.814945236478436e-01, -4.877354382860635e-01, 1.023111250152723e+00
150, 5.118399858470000e-01, 4.623644370290586e-02, 7.877308821794727e-01, -4.738149951351055e-01, 1.016415416150820e+00
151, 5.276100039480000e-01, 4.575772092757516e-02, 7.942447122882786e-01, -4.592751957850923e-01, 1.009461714659216e+00
152, 5.433599948880000e-01, 4.519796477089115e-02, 8.011530340864718e-01, -4.438548346284112e-01, 1.002112564802978e+00
153, 5.590599775310000e-01, 4.455680431932147e-02, 8.086900235267579e-01, -4.270311974849154e-01, 9.941260259143340e-01
154, 5.747100114820000e-01, 4.383311154667927e-02, 8.168768882060213e-01, -4.087569459687024e-01, 9.854636583545260e-01
155, 5.902799963950000e-01, 4.302752162703790e-02, 8.254808222652142e-01, -3.895517360151468e-01, 9.763781486570116e-01
156, 6.057599782940000e-01, 4.214029903445511e-02, 8.342959075733677e-01, -3.698752063094471e-01, 9.671262392127530e-01
157, 6.211299896240000e-01, 4.117281627790479e-02, 8.433904034970983e-01, -3.495749921939771e-01, 9.575986272014242e-01
158, 6.363800168040000e-01, 4.012646173321073e-02, 8.529798049990308e-01, -3.281700781271634e-01, 9.476004370156837e-01
159, 6.514999866490000e-01, 3.900317784759189e-02, 8.631225830236771e-01, -3.055299486078637e-01, 9.370528689522071e-01
160, 6.664699912070000e-01, 3.780631434253882e-02, 8.737392421523940e-01, -2.818320487669778e-01, 9.260573173297999e-01
161, 6.812700033190000e-01, 3.654008117035614e-02, 8.847216913863110e-01, -2.573176531555559e-01, 9.147164304986747e-01
162, 6.958900094030001e-01, 3.520862160399387e-02, 8.960072730915762e-01, -2.321266225634459e-01, 9.031041376645870e-01
163, 7.103199958800001e-01, 3.381674333337061e-02, 9.075827607796533e-01, -2.062884804025596e-01, 8.912316337057367e-01
164, 7.245299816130000e-01, 3.237200616533629e-02, 9.194082614435675e-01, -1.798922735634655e-01, 8.791371116395781e-01
165, 7.385200262070000e-01, 3.087975170932289e-02, 9.314653359582857e-01, -1.529791608073979e-01, 8.668402033771795e-01
166, 7.522799968720000e-01, 2.934692238330815e-02, 9.436901637618574e-01, -1.256915987458539e-01, 8.543945370109866e-01
167, 7.657799720760000e-01, 2.778341992664275e-02, 9.560481667629274e-01, -9.810677061846571e-02, 8.418604996490674e-01
168, 7.790099978450000e-01, 2.619762088850810e-02, 9.684638939923563e-01, -7.039309376706177e-02, 8.292422264456842e-01
169, 7.919700145720000e-01, 2.459717317457241e-02, 9.809096374164825e-01, -4.261241648106581e-02, 8.166404559707480e-01
170, 8.046399950980000e-01, 2.299260279168124e-02, 9.932798442498944e-01, -1.500034765648583e-02, 8.041288313407394e-01
171, 8.170099854470000e-01, 2.139355255246694e-02, 1.005469666588251e+00, 1.220907720591837e-02, 7.917827794725172e-01
172, 8.290500044819999e-01, 1.981237850030194e-02, 1.017370973878703e+00, 3.877449526496134e-02, 7.797491152242415e-01
173, 8.407700061800000e-01, 1.825587789233613e-02, 1.028866500453022e+00, 6.443415279692305e-02, 7.681299615425095e-01
174, 8.521599769590000e-01, 1.673249840773001e-02, 1.039884804178164e+00, 8.902858075483007e-02, 7.569951447191421e-01
175, 8.631799817090000e-01, 1.525308231807718e-02, 1.050392326001750e+00, 1.124828705396216e-01, 7.463732569723660e-01
176, 8.738499879840000e-01, 1.381811441831708e-02, 1.060458991761769e+00, 1.349531066110906e-01, 7.361707141871353e-01
177, 8.841500282290000e-01, 1.243081523402054e-02, 1.070334477629291e+00, 1.569966018510963e-01, 7.261406469190134e-01
178, 8.940600156780000e-01, 1.109238515502217e-02, 1.080408447239070e+00, 1.794831411586395e-01, 7.158348606847091e-01
179, 9.035800099370001e-01, 9.801131096456512e-03, 1.091231879148735e+00, 2.036425873855692e-01, 7.047095096631242e-01
180, 9.126999974250000e-01, 8.559754991001025e-03, 1.103254564915481e+00, 2.304789395434854e-01, 6.922528201709811e-01
181, 9.214000105860000e-01, 7.379201646133420e-03, 1.116604443859575e+00, 2.602777764722662e-01, 6.783691181789064e-01
182, 9.296900033950000e-01, 6.276038716597901e-03, 1.130726550191271e+00, 2.918003352483730e-01, 6.636383524850000e-01
31, 7.657799720760000e-01, -3.607856953339312e-02, 9.120719779100344e-01, -1.962679064508162e-01, 8.878999794004000e-01
32, 7.522799968720000e-01, -3.754418305993723e-02, 9.051796436700541e-01, -2.116525810936292e-01, 8.949399250204501e-01
33, 7.385200262070000e-01, -3.898939267377644e-02, 8.982726872217344e-01, -2.270698945943429e-01, 9.020099956102298e-01
34, 7.245299816130000e-01, -4.040832598194256e-02, 8.914214381425209e-01, -2.423628612890157e-01, 9.090376931015669e-01
35, 7.103199958800001e-01, -4.179735420999521e-02, 8.846919316646676e-01, -2.573840811056526e-01, 9.159536400413175e-01
36, 6.958900094030001e-01, -4.315391472584286e-02, 8.781047842339237e-01, -2.720875351921346e-01, 9.227469850280761e-01
37, 6.812700033190000e-01, -4.447281089744628e-02, 8.716717801293439e-01, -2.864469193541431e-01, 9.293884417280192e-01
38, 6.664699912070000e-01, -4.575104219628682e-02, 8.654053401059834e-01, -3.004345086920014e-01, 9.358702195270244e-01
39, 6.514999866490000e-01, -4.698583315136594e-02, 8.593227190558562e-01, -3.140117878217495e-01, 9.421842397534538e-01
40, 6.363800168040000e-01, -4.817387410063409e-02, 8.534302211846629e-01, -3.271646848556631e-01, 9.483035514300983e-01
41, 6.211299896240000e-01, -4.931225452584146e-02, 8.477315295740520e-01, -3.398849786293483e-01, 9.542481838768445e-01
42, 6.057599782940000e-01, -5.039912202798500e-02, 8.422126803567789e-01, -3.522038384893329e-01, 9.600047253204769e-01
43, 5.902799963950000e-01, -5.143284104822720e-02, 8.368846090899817e-01, -3.640968547098622e-01, 9.655879944740923e-01
44, 5.747100114820000e-01, -5.241136184639902e-02, 8.317780098830317e-01, -3.754955136539470e-01, 9.709338437254965e-01
45, 5.590599775310000e-01, -5.333352798271424e-02, 8.269484562500494e-01, -3.862757672989968e-01, 9.760133611358803e-01
46, 5.433599948880000e-01, -5.419725005056472e-02, 8.223901515372986e-01, -3.964505546042443e-01, 9.808052266663827e-01
47, 5.276100039480000e-01, -5.500233886149396e-02, 8.180030479263771e-01, -4.062431965929082e-01, 9.854507773902949e-01
48, 5.118399858470000e-01, -5.574715665612451e-02, 8.136044504464079e-01, -4.160614945392680e-01, 9.901099034425926e-01
49, 4.960500001910000e-01, -5.643164764053184e-02, 8.091696113112616e-01, -4.259606890373624e-01, 9.948430072944363e-01
50, 4.802699983120000e-01, -5.705447666792818e-02, 8.049854815071408e-01, -4.353002644929894e-01, 9.992931107721320e-01
51, 4.645099937920000e-01, -5.761525164828355e-02, 8.015118480360235e-01, -4.430539106338762e-01, 1.002982242162589e+00
52, 4.487800002100000e-01, -5.811351119195226e-02, 7.989065733360163e-01, -4.488692559463921e-01, 1.005710760882088e+00
53, 4.331099987030000e-01, -5.854818066685175e-02, 7.967678844483378e-01, -4.536431150706746e-01, 1.007948655738378e+00
54, 4.174999892710000e-01, -5.891903171510317e-02, 7.942007229588504e-01, -4.593733862525662e-01, 1.010680943450271e+00
55, 4.019699990750000e-01, -5.922517711407459e-02, 7.901968116689083e-01, -4.683106882390439e-01, 1.015050355637128e+00
56, 3.865399956700000e-01, -5.946573315113794e-02, 7.841083285617975e-01, -4.819010523174164e-01, 1.021752460299543e+00
57, 3.712300062180000e-01, -5.963981231233245e-02, 7.761432070173597e-01, -4.996803414791078e-01, 1.030568822164938e+00
58, 3.560400009160000e-01, -5.974662382803154e-02, 7.675033469593622e-01, -5.189657433942809e-01, 1.040102652486998e+00
59, 3.409900069240000e-01, -5.978501644757606e-02, 7.598402830174619e-01, -5.360707968360227e-01, 1.048530708155691e+00
60, 3.261100053790000e-01, -5.975389052944265e-02, 7.542939073668881e-01, -5.484510996274821e-01, 1.054601209959058e+00
61, 3.113999962810000e-01, -5.965208821142248e-02, 7.510985372857694e-01, -5.555836221299791e-01, 1.058044588997943e+00
62, 2.968699932100000e-01, -5.947825305051960e-02, 7.498685662734940e-01, -5.583290931395224e-01, 1.059336633651374e+00
63, 2.825500071050000e-01, -5.923128729499969e-02, 7.500466600396762e-01, -5.579315624114369e-01, 1.059068229421766e+00
64, 2.684499919410000e-01, -5.890990356001062e-02, 7.512155406247875e-01, -5.553224539625280e-01, 1.057742614760571e+00
65, 2.545700073240000e-01, -5.851241834641251e-02, 7.531372401091714e-01, -5.510329461848853e-01, 1.055572475141995e+00
66, 2.409400045870000e-01, -5.803796828561750e-02, 7.557342816461942e-01, -5.452359784683166e-01, 1.052687129708283e+00
67, 2.275699973110000e-01, -5.748526543908300e-02, 7.589157065895400e-01, -5.381345835054911e-01, 1.049147254173400e+00
68, 2.144699990750000e-01, -5.685301586622914e-02, 7.625577347625501e-01, -5.300050563335936e-01, 1.045130563743482e+00
69, 2.016600072380000e-01, -5.614053266980569e-02, 7.665292363674681e-01, -5.211400973940445e-01, 1.040748034339340e+00
70, 1.891400069000000e-01, -5.534613120017701e-02, 7.708466269134028e-01, -5.115030649254403e-01, 1.036013780434151e+00
71, 1.769299954180000e-01, -5.446938515167023e-02, 7.757386069421121e-01, -5.005834666470713e-01, 1.030645744712559e+00
72, 1.650400012730000e-01, -5.350944836960059e-02, 7.815230921944049e-01, -4.876716692089177e-01, 1.024327577845059e+00
73, 1.534900069240000e-01, -5.246653806887493e-02, 7.883052884292681e-01, -4.725328383275267e-01, 1.016925306745507e+00
74, 1.422899961470000e-01, -5.134036520998295e-02, 7.959745321000645e-01, -4.554139908480703e-01, 1.008614119701842e+00
75, 1.314399987460000e-01, -5.012966198872085e-02, 8.043690488751716e-01, -4.366762301893491e-01, 9.995130437079125e-01
76, 1.209499984980000e-01, -4.883417048213250e-02, 8.135497288625386e-01, -4.161836409318335e-01, 9.896499971452006e-01
77, 1.108499988910000e-01, -4.745667060037023e-02, 8.237615690437485e-01, -3.933893548130613e-01, 9.787733466830719e-01
78, 1.011300012470000e-01, -4.599497811961413e-02, 8.351275900938581e-01, -3.680187721119240e-01, 9.666715852746234e-01
79, 9.181000292300000e-02, -4.445119835214710e-02, 8.477139616781508e-01, -3.399241926826991e-01, 9.532886045609424e-01
80, 8.290000259900000e-02, -4.282644179127516e-02, 8.616544411183342e-01, -3.088070510751468e-01, 9.385818659779259e-01
81, 7.440000027400000e-02, -4.112005616323534e-02, 8.770672043612463e-01, -2.744035616936467e-01, 9.223911615085610e-01
82, 6.633000075800000e-02, -3.933557296668479e-02, 8.941659466147095e-01, -2.362367263064520e-01, 9.045450689376401e-01
83, 5.869000032500000e-02, -3.747268392813526e-02, 9.131505482712969e-01, -1.938603833229979e-01, 8.848202406200883e-01
84, 5.149000138000000e-02, -3.553340094913860e-02, 9.343199035541535e-01, -1.466073581380502e-01, 8.629073591318557e-01
113, 4.473999887700000e-02, 2.393661337453700e-02, 6.842299543758357e-01, -7.048438518396526e-01, 1.128775501759958e+00
114, 5.149000138000000e-02, 2.527256674330303e-02, 6.829272196431156e-01, -7.077517418680455e-01, 1.130600363268684e+00
115, 5.869000032500000e-02, 2.657087607376896e-02, 6.827640820929164e-01, -7.081158881854545e-01, 1.131073220619751e+00
116, 6.633000075800000e-02, 2.783227948818771e-02, 6.836057627058106e-01, -7.062371368173870e-01, 1.130271390875525e+00
117, 7.440000027400000e-02, 2.905745280237610e-02, 6.851469143237198e-01, -7.027970662416969e-01, 1.128575809434411e+00
118, 8.290000259900000e-02, 3.024832071091390e-02, 6.869484813076084e-01, -6.987757113669455e-01, 1.126599705793116e+00
119, 9.181000292300000e-02, 3.140379577910625e-02, 6.885994996670350e-01, -6.950904025289396e-01, 1.124810164926279e+00
120, 1.011300012470000e-01, 3.252539769035834e-02, 6.901078539285811e-01, -6.917235403379887e-01, 1.123224839252142e+00
121, 1.108499988910000e-01, 3.361310812433533e-02, 6.918823061931452e-01, -6.877627093903009e-01, 1.121371402019550e+00
122, 1.209499984980000e-01, 3.466580964959096e-02, 6.942787002788016e-01, -6.824136154491036e-01, 1.118769467607372e+00
123, 1.314399987460000e-01, 3.568537030612737e-02, 6.971367648085692e-01, -6.760340071237294e-01, 1.115538261009859e+00
124, 1.422899961470000e-01, 3.666951687819722e-02, 6.999221071218269e-01, -6.698167251744935e-01, 1.112378926636685e+00
125, 1.534900069240000e-01, 3.761799872590976e-02, 7.023309416021462e-01, -6.644398624952095e-01, 1.109668293595392e+00
126, 1.650400012730000e-01, 3.853118993980544e-02, 7.044683393323856e-01, -6.596688854187821e-01, 1.107306659181045e+00
127, 1.769299954180000e-01, 3.940841726243735e-02, 7.065337566025445e-01, -6.550585790121776e-01, 1.105026871662577e+00
128, 1.891400069000000e-01, 4.024822602357762e-02, 7.086548553745462e-01, -6.503239835389594e-01, 1.102697363785010e+00
129, 2.016600072380000e-01, 4.104983876222378e-02, 7.109322027312380e-01, -6.452406189034866e-01, 1.100179391079870e+00
130, 2.144699990750000e-01, 4.181176763281835e-02, 7.134319259094027e-01, -6.396608796665118e-01, 1.097416730047204e+00
131, 2.275699973110000e-01, 4.253361373475677e-02, 7.161419261813856e-01, -6.336117719165499e-01, 1.094406033973760e+00
132, 2.409400045870000e-01, 4.321367958436117e-02, 7.189652172497937e-01, -6.273097829245677e-01, 1.091275336126274e+00
133, 2.545700073240000e-01, 4.385072634525838e-02, 7.217813164547475e-01, -6.210238471992243e-01, 1.088147241271001e+00
134, 2.684499919410000e-01, 4.444335492525105e-02, 7.245309945122301e-01, -6.148861729637720e-01, 1.085106969286711e+00
135, 2.825500071050000e-01, 4.498927043668594e-02, 7.271887857848421e-01, -6.089536031588345e-01, 1.082169524537860e+00
136, 2.968699932100000e-01, 4.548730631558422e-02, 7.297381327588349e-01, -6.032630965204577e-01, 1.079364369102637e+00
137, 3.113999962810000e-01, 4.593568466420837e-02, 7.321293999302084e-01, -5.979254465843562e-01, 1.076741662531655e+00
138, 3.261100053790000e-01, 4.633195793123176e-02, 7.343760039185609e-01, -5.929107055389264e-01, 1.074296688169170e+00
139, 3.409900069240000e-01, 4.667424878365738e-02, 7.366511019454257e-01, -5.878323617289605e-01, 1.071832244394080e+00
140, 3.560400009160000e-01, 4.696069198763585e-02, 7.392688150190249e-01, -5.819892521896767e-01, 1.069014998992717e+00
141, 3.712300062180000e-01, 4.718871993408456e-02, 7.424875072512233e-01, -5.748046713142339e-01, 1.065517027339043e+00
142, 3.865399956700000e-01, 4.735603687183215e-02, 7.463557097454373e-01, -5.661702907467917e-01, 1.061290486988433e+00
143, 4.019699990750000e-01, 4.746048397542749e-02, 7.507107533530444e-01, -5.564492112655259e-01, 1.056516644662221e+00
144, 4.174999892710000e-01, 4.749961895621360e-02, 7.553478679035461e-01, -5.460985091438703e-01, 1.051434848941425e+00
145, 4.331099987030000e-01, 4.747108536722046e-02, 7.601324381941214e-01, -5.354186647452649e-01, 1.046210572533589e+00
146, 4.487800002100000e-01, 4.737264522727991e-02, 7.650289387735506e-01, -5.244889759518960e-01, 1.040880617541667e+00
147, 4.645099937920000e-01, 4.720195348547106e-02, 7.701365508837248e-01, -5.130880560631144e-01, 1.035364624956554e+00
148, 4.802699983120000e-01, 4.695702106314131e-02, 7.755970910680642e-01, -5.008993502944996e-01, 1.029457627237229e+00
85, 4.473999887700000e-02, -3.352024008613608e-02, 9.581110727228872e-01, -9.350206981498392e-02, 8.383321984378324e-01
86, 3.844000026600000e-02, -3.143288492954873e-02, 9.849107343195703e-01, -3.368139660810195e-02, 8.106521505055083e-01
87, 3.260000050100000e-02, -2.927417536009254e-02, 1.015256548870316e+00, 3.405479658552783e-02, 7.793661689009648e-01
88, 2.723000012300000e-02, -2.704779742758944e-02, 1.049913130964300e+00, 1.114132387595991e-01, 7.436319909426612e-01
89, 2.232000045500000e-02, -2.474871257824615e-02, 1.089475554988157e+00, 1.997222209557075e-01, 7.025754514777982e-01
90, 1.789999939500000e-02, -2.239092357972175e-02, 1.134775087621720e+00, 3.008372491556249e-01, 6.551549132297388e-01
91, 1.394999958600000e-02, -1.996360629382325e-02, 1.186610157390560e+00, 4.165405298896426e-01, 5.999626657243903e-01
92, 1.049000024800000e-02, -1.747803440682723e-02, 1.245013458728554e+00, 5.469050418048069e-01, 5.354023199992929e-01
93, 7.519999985000000e-03, -1.493512473666470e-02, 1.309346663181979e+00, 6.905059446026327e-01, 4.599076597242192e-01
94, 5.040000193000000e-03, -1.233507434608903e-02, 1.377168280748118e+00, 8.418934838127645e-01, 3.712838181642379e-01
95, 3.049999941000000e-03, -9.676375752066957e-03, 1.443406932459855e+00, 9.897476170978913e-01, 2.683341790212839e-01
96, 1.560000004000000e-03, -6.974315241999441e-03, 1.495255919516069e+00, 1.105481963205511e+00, 1.524484164367020e-01
97, 5.600000150000000e-04, -4.207806653198101e-03, 1.523651713656305e+00, 1.168865432268539e+00, 2.340545509220311e-02
98, 5.999999800000000e-05, -1.384363126811885e-03, 1.507310292630843e+00, 1.132389046050989e+00, 1.110985406775644e-01
99, 0.000000000000000e+00, 0.000000000000000e+00, 1.462324343245872e+00, 1.031973980459536e+00, 2.148209816900798e-01
100, 5.999999800000000e-05, 1.264179232452305e-03, 1.420833526756806e+00, 9.393605507964419e-01, 3.136496402441832e-01
101, 5.600000150000000e-04, 3.627001266934493e-03, 1.321404075999867e+00, 7.174198124997033e-01, 4.613121264276318e-01
102, 1.560000004000000e-03, 5.792561103824135e-03, 1.150416677314523e+00, 3.357515118627741e-01, 6.260174244384248e-01
103, 3.049999941000000e-03, 7.812396788272297e-03, 1.013519017083355e+00, 3.017637741820315e-02, 7.602692137457266e-01
104, 5.040000193000000e-03, 9.731445032154602e-03, 9.084119298808907e-01, -2.044376565158690e-01, 8.668115090525758e-01
105, 7.519999985000000e-03, 1.155739167056874e-02, 8.321061752475433e-01, -3.747630016795909e-01, 9.490011288070292e-01
106, 1.049000024800000e-02, 1.330518880572139e-02, 7.802591776919687e-01, -4.904929069375698e-01, 1.008681892692868e+00
107, 1.394999958600000e-02, 1.498532906745443e-02, 7.461762624371581e-01, -5.665708427742008e-01, 1.050065827563275e+00
108, 1.789999939500000e-02, 1.660571477033563e-02, 7.233717676233433e-01, -6.174737329836086e-01, 1.078510745167371e+00
109, 2.232000045500000e-02, 1.816595237634903e-02, 7.080055998098050e-01, -6.517732147102566e-01, 1.097998650607227e+00
110, 2.723000012300000e-02, 1.967919061838515e-02, 6.976882747495636e-01, -6.748029581482955e-01, 1.111285630946607e+00
111, 3.260000050100000e-02, 2.114130253892426e-02, 6.908764603878040e-01, -6.900079009200802e-01, 1.120014525919932e+00
112, 3.844000026600000e-02, 2.255998899068480e-02, 6.867147294394533e-01, -6.992974789297917e-01, 1.125451149941311e+00
199, 1.000000000000000e+00, 0.000000000000000e+00, 1.279254217705907e+00, 6.233353073792561e-01, 4.554126322636399e-01
0, 9.997500181200000e-01, -3.633242960389845e-05, 1.290550001725966e+00, 6.485491109954601e-01, 4.935153967109491e-01
1, 9.990000128750000e-01, -1.454724410240125e-04, 1.264210768534603e+00, 5.897561797647396e-01, 5.210639971543148e-01
2, 9.977599978450000e-01, -3.275086180132182e-04, 1.248347513352018e+00, 5.543471280178975e-01, 5.398251141547084e-01
3, 9.960200190539999e-01, -5.899338731900391e-04, 1.238450003129378e+00, 5.322544712709328e-01, 5.517158007248945e-01
4, 9.937800168990000e-01, -9.471191920016770e-04, 1.231550780028053e+00, 5.168544197054759e-01, 5.596247076835541e-01
5, 9.910500049590000e-01, -1.422164072228253e-03, 1.224799817650555e+00, 5.017853072557041e-01, 5.673788427268105e-01
6, 9.878399968150000e-01, -2.045672590945346e-03, 1.214718378683566e+00, 4.792820952758171e-01, 5.780407008850210e-01
7, 9.841300249100000e-01, -2.853982090531190e-03, 1.198803610771437e+00, 4.437580597576710e-01, 5.946271047516496e-01
183, 9.375399947170000e-01, 5.281239870304203e-03, 1.144331016486246e+00, 3.221674475139418e-01, 6.494869513729159e-01
184, 9.449599981310000e-01, 4.423963198621111e-03, 1.155553850067645e+00, 3.472184153295642e-01, 6.379508929713497e-01
185, 9.519400000570000e-01, 3.729135333549470e-03, 1.162417633806412e+00, 3.625393611750264e-01, 6.311556310254272e-01
186, 9.584699869160000e-01, 3.202871686948934e-03, 1.163351522860734e+00, 3.646239349569947e-01, 6.306776946448480e-01
187, 9.645400047300000e-01, 2.824978659563131e-03, 1.157891198747521e+00, 3.524357114900025e-01, 6.368209046610583e-01
