"Global_Index", "x_coord", "y_coord", "Pressure", "Pressure_Coefficient", "Mach_Number"
149, 4.960500001910000e-01, 4.310626215530208e-02, 7.783084750409988e-01, -4.948471539263420e-01, 1.013488470445099e+00
150, 5.118399858470000e-01, 4.337672348734548e-02, 7.653903575678197e-01, -5.236822375718311e-01, 1.027707972209776e+00
151, 5.276100039480000e-01, 4.354386939887094e-02, 7.525014615401353e-01, -5.524520947764837e-01, 1.042054960400341e+00
152, 5.433599948880000e-01, 4.359986778493372e-02, 7.397611534854910e-01, -5.808902823984576e-01, 1.056388218526214e+00
153, 5.590599775310000e-01, 4.353752272225080e-02, 7.268854027114280e-01, -6.096307975191340e-01, 1.070866990154722e+00
154, 5.747100114820000e-01, 4.335064215741172e-02, 7.130023069327445e-01, -6.406198505965526e-01, 1.086580882743270e+00
155, 5.902799963950000e-01, 4.303446381765285e-02, 6.968356459161533e-01, -6.767061475085864e-01, 1.105264956539334e+00
156, 6.057599782940000e-01, 4.258541599334228e-02, 6.797981229606584e-01, -7.147363326771017e-01, 1.126132874288490e+00
157, 6.211299896240000e-01, 4.200167242946790e-02, 6.702541061799698e-01, -7.360399415625674e-01, 1.138125045814183e+00
158, 6.363800168040000e-01, 4.128269470446169e-02, 6.871407111004282e-01, -6.983466270079728e-01, 1.119097250321772e+00
159, 6.514999866490000e-01, 4.042948499068012e-02, 7.464141228686180e-01, -5.660399043111206e-01, 1.049478251821534e+00
160, 6.664699912070000e-01, 3.944534424860802e-02, 8.177189261821074e-01, -4.068773969149388e-01, 9.687772975403056e-01
161, 6.812700033190000e-01, 3.833559202183914e-02, 8.535251190813281e-01, -3.269528591934641e-01, 9.305520946879543e-01
162, 6.958900094030001e-01, 3.710666535137996e-02, 8.625277800153957e-01, -3.068576338942062e-01, 9.211741468414146e-01
163, 7.103199958800001e-01, 3.576659670976057e-02, 8.682933751060886e-01, -2.939880019953379e-01, 9.154563155634328e-01
164, 7.245299816130000e-01, 3.432704340592742e-02, 8.811237728278067e-01, -2.653487213665028e-01, 9.023972873767522e-01
165, 7.385200262070000e-01, 3.279829270084079e-02, 8.986471329674702e-01, -2.262340781976111e-01, 8.843006694327169e-01
166, 7.522799968720000e-01, 3.119277050785857e-02, 9.161852105469817e-01, -1.870865836004874e-01, 8.661339555797367e-01
167, 7.657799720760000e-01, 2.952646865546060e-02, 9.327451019238677e-01, -1.501225403485096e-01, 8.489809413955381e-01
168, 7.790099978450000e-01, 2.781404742578943e-02, 9.492266013322243e-01, -1.133334791691423e-01, 8.319207047579024e-01
169, 7.919700145720000e-01, 2.606935109573704e-02, 9.657823662030047e-01, -7.637864686829302e-02, 8.148754260182243e-01
170, 8.046399950980000e-01, 2.430915794045936e-02, 9.820043012194177e-01, -4.016897049237114e-02, 7.981814526684932e-01
171, 8.170099854470000e-01, 2.254892949276943e-02, 9.976238590469033e-01, -5.303886056019383e-03, 7.820935214561343e-01
172, 8.290500044819999e-01, 2.080658951942987e-02, 1.012512633055635e+00, 2.792998449918500e-02, 7.667817678431823e-01
173, 8.407700061800000e-01, 1.909328397154519e-02, 1.026561915738496e+00, 5.928999048771325e-02, 7.523104675579869e-01
174, 8.521599769590000e-01, 1.742126269816233e-02, 1.039713173918742e+00, 8.864547749719237e-02, 7.387751491699145e-01
175, 8.631799817090000e-01, 1.580463889487552e-02, 1.051937858692667e+00, 1.159327202961309e-01, 7.261597757959427e-01
176, 8.738499879840000e-01, 1.424545538142404e-02, 1.063339661153984e+00, 1.413831722187149e-01, 7.143650204878998e-01
177, 8.841500282290000e-01, 1.274808198496342e-02, 1.074188028110393e+00, 1.655982770321263e-01, 7.030931020273270e-01
178, 8.940600156780000e-01, 1.131402230927827e-02, 1.084894705337567e+00, 1.894971101284989e-01, 6.918823020110222e-01
179, 9.035800099370001e-01, 9.941071277043606e-03, 1.096016906939389e+00, 2.143234529897076e-01, 6.801599138096166e-01
180, 9.126999974250000e-01, 8.631203889516798e-03, 1.108026547904643e+00, 2.411306872871504e-01, 6.673838526936063e-01
181, 9.214000105860000e-01, 7.394682405463851e-03, 1.121083833627259e+00, 2.702764143465594e-01, 6.534257999914588e-01
182, 9.296900033950000e-01, 6.247446055903863e-03, 1.134693633624331e+00, 3.006554321971668e-01, 6.388162380667662e-01
31, 7.657799720760000e-01, -3.601484346786941e-02, 9.168764270317390e-01, -1.855436896612969e-01, 8.820325336478196e-01
32, 7.522799968720000e-01, -3.749058247868717e-02, 9.107923164269081e-01, -1.991242936899374e-01, 8.882464058790680e-01
33, 7.385200262070000e-01, -3.895236167845945e-02, 9.046641112667774e-01, -2.128033230652291e-01, 8.945166310699603e-01
34, 7.245299816130000e-01, -4.039502846077305e-02, 8.985382692232533e-01, -2.264770776266667e-01, 9.007994822089667e-01
35, 7.103199958800001e-01, -4.181558430795789e-02, 8.924612955135894e-01, -2.400417510857379e-01, 9.070412184515767e-01
36, 6.958900094030001e-01, -4.321200282437160e-02, 8.864455463686784e-01, -2.534697625699142e-01, 9.132442759410924e-01
37, 6.812700033190000e-01, -4.457939202984180e-02, 8.804749362131979e-01, -2.667970173812546e-01, 9.194079308038553e-01
38, 6.664699912070000e-01, -4.591493117552392e-02, 8.745078840033852e-01, -2.801163303495866e-01, 9.255853219857741e-01
39, 6.514999866490000e-01, -4.721584897613838e-02, 8.685039164399072e-01, -2.935180436609214e-01, 9.318247814865175e-01
40, 6.363800168040000e-01, -4.847860537787859e-02, 8.625162305431849e-01, -3.068834139661051e-01, 9.380534440666715e-01
41, 6.211299896240000e-01, -4.969985643094826e-02, 8.567205696070879e-01, -3.198201571270360e-01, 9.441027458394009e-01
42, 6.057599782940000e-01, -5.087717988180450e-02, 8.512544729431692e-01, -3.320212657518544e-01, 9.498287503862090e-01
43, 5.902799963950000e-01, -5.200820227006282e-02, 8.459324292097472e-01, -3.439008276568143e-01, 9.554519463347843e-01
44, 5.747100114820000e-01, -5.308991270259925e-02, 8.403247273900726e-01, -3.564180192185880e-01, 9.613973754018724e-01
45, 5.590599775310000e-01, -5.412011425938942e-02, 8.347359305971827e-01, -3.688930120598601e-01, 9.672830122205560e-01
46, 5.433599948880000e-01, -5.509541526975228e-02, 8.312350463574151e-01, -3.767074858093414e-01, 9.707649782832176e-01
47, 5.276100039480000e-01, -5.601444036852824e-02, 8.331242929193029e-01, -3.724904175908417e-01, 9.683422823907362e-01
48, 5.118399858470000e-01, -5.687408312908572e-02, 8.413933135677442e-01, -3.540327822148568e-01, 9.591293544721978e-01
49, 4.960500001910000e-01, -5.767299480535527e-02, 8.486759076964600e-01, -3.377769917489734e-01, 9.513222871960936e-01
50, 4.802699983120000e-01, -5.840831759526514e-02, 8.377770041447813e-01, -3.621049014625418e-01, 9.627966638519950e-01
51, 4.645099937920000e-01, -5.907829620765692e-02, 7.938997979445189e-01, -4.600450938738417e-01, 1.010493835193846e+00
52, 4.487800002100000e-01, -5.968114161705675e-02, 7.338661483360824e-01, -5.940487760355303e-01, 1.078759490220004e+00
53, 4.331099987030000e-01, -6.021438499361637e-02, 6.978232869007345e-01, -6.745015917394320e-01, 1.119487941314283e+00
54, 4.174999892710000e-01, -6.067668207934231e-02, 6.907246241825918e-01, -6.903468210210004e-01, 1.126958482455550e+00
55, 4.019699990750000e-01, -6.106600248719519e-02, 6.953830414435941e-01, -6.799485682062633e-01, 1.120871700897327e+00
56, 3.865399956700000e-01, -6.138044799896261e-02, 7.002520366448159e-01, -6.690802753463930e-01, 1.114988079490752e+00
57, 3.712300062180000e-01, -6.161826065621069e-02, 7.027796964082147e-01, -6.634381776602351e-01, 1.112296375601637e+00
58, 3.560400009160000e-01, -6.177799896546327e-02, 7.044301147435329e-01, -6.597542081617569e-01, 1.110504437635407e+00
59, 3.409900069240000e-01, -6.185791932219944e-02, 7.065452008609950e-01, -6.550330337924218e-01, 1.108102689972036e+00
60, 3.261100053790000e-01, -6.185648100177647e-02, 7.094321406957999e-01, -6.485889716611610e-01, 1.104793530048073e+00
61, 3.113999962810000e-01, -6.177231182821812e-02, 7.129225665878713e-01, -6.407978424377871e-01, 1.100802016365394e+00
62, 2.968699932100000e-01, -6.160394734845962e-02, 7.168539218481134e-01, -6.320224958747470e-01, 1.096332203959168e+00
63, 2.825500071050000e-01, -6.135033326263618e-02, 7.211722439362362e-01, -6.223833840709012e-01, 1.091439430612278e+00
64, 2.684499919410000e-01, -6.101038749180542e-02, 7.258937709732159e-01, -6.118442612205002e-01, 1.086107638922385e+00
65, 2.545700073240000e-01, -6.058272813253259e-02, 7.310548167025064e-01, -6.003240698604768e-01, 1.080286667571744e+00
66, 2.409400045870000e-01, -6.006697653660904e-02, 7.367057041670777e-01, -5.877104817699159e-01, 1.073944431882257e+00
67, 2.275699973110000e-01, -5.946241624801741e-02, 7.428010155694711e-01, -5.741048759610020e-01, 1.067125293511266e+00
68, 2.144699990750000e-01, -5.876841918892355e-02, 7.492265693246510e-01, -5.597621220431896e-01, 1.059977733280699e+00
69, 2.016600072380000e-01, -5.798510759597150e-02, 7.558703971378915e-01, -5.449321492457779e-01, 1.052614769564528e+00
70, 1.891400069000000e-01, -5.711157644069047e-02, 7.627685850189742e-01, -5.295344084397898e-01, 1.045010388678230e+00
71, 1.769299954180000e-01, -5.614835979499130e-02, 7.701688063700826e-01, -5.130160572096372e-01, 1.036876529654423e+00
72, 1.650400012730000e-01, -5.509557197132971e-02, 7.783969962056281e-01, -4.946495620410088e-01, 1.027873982701063e+00
73, 1.534900069240000e-01, -5.395451949699866e-02, 7.875679582874889e-01, -4.741786645368551e-01, 1.017874211256747e+00
74, 1.422899961470000e-01, -5.272596402186145e-02, 7.975634851133685e-01, -4.518672207290882e-01, 1.007051521056776e+00
75, 1.314399987460000e-01, -5.140960733974914e-02, 8.082031975138120e-01, -4.281178626923840e-01, 9.955538593783847e-01
76, 1.209499984980000e-01, -5.000625476291949e-02, 8.195235415070223e-01, -4.028492377075394e-01, 9.834282664337667e-01
77, 1.108499988910000e-01, -4.851997354035658e-02, 8.317642563273381e-01, -3.755262135550489e-01, 9.704337252179418e-01
78, 1.011300012470000e-01, -4.694943875453284e-02, 8.450559740517392e-01, -3.458572007773680e-01, 9.563502128166299e-01
79, 9.181000292300000e-02, -4.529792062985466e-02, 8.594708466347566e-01, -3.136811459045612e-01, 9.411074768718989e-01
80, 8.290000259900000e-02, -4.356756579150649e-02, 8.751438376484099e-01, -2.786967909633709e-01, 9.246618425314055e-01
81, 7.440000027400000e-02, -4.175860557712454e-02, 8.921892871476175e-01, -2.406489126169253e-01, 9.068555286856600e-01
82, 6.633000075800000e-02, -3.987565763314745e-02, 9.108148064388094e-01, -1.990740927705147e-01, 8.875154022539281e-01
83, 5.869000032500000e-02, -3.791921381775929e-02, 9.312139157898750e-01, -1.535403665404576e-01, 8.664262041530516e-01
84, 5.149000138000000e-02, -3.589215690224586e-02, 9.536690913699863e-01, -1.034172067634233e-01, 8.432894750550137e-01
113, 4.473999887700000e-02, 1.986632896600678e-02, 5.284643117892711e-01, -1.052535018327520e+00, 1.320356461148341e+00
114, 5.149000138000000e-02, 2.062219386949730e-02, 5.321723334616268e-01, -1.044258184237440e+00, 1.315438261715487e+00
115, 5.869000032500000e-02, 2.132619913961032e-02, 5.371145314298973e-01, -1.033226492343979e+00, 1.308864067689730e+00
116, 6.633000075800000e-02, 2.198541142833450e-02, 5.430761768443142e-01, -1.019919248115370e+00, 1.300988342448500e+00
117, 7.440000027400000e-02, 2.260686522087270e-02, 5.508891905129775e-01, -1.002479485462104e+00, 1.290331365315718e+00
118, 8.290000259900000e-02, 2.319813683501905e-02, 5.616580589142084e-01, -9.784418327807849e-01, 1.275850367983630e+00
119, 9.181000292300000e-02, 2.376517694928843e-02, 5.715013129808321e-01, -9.564702835249285e-01, 1.263897178517757e+00
120, 1.011300012470000e-01, 2.431506252791362e-02, 5.755180049486019e-01, -9.475044532397279e-01, 1.255535084885959e+00
121, 1.108499988910000e-01, 2.485390204212171e-02, 5.993020896785365e-01, -8.944149783961239e-01, 1.224408222693747e+00
122, 1.209499984980000e-01, 2.538698846896601e-02, 7.267303229510303e-01, -6.099769576985929e-01, 1.058843569205452e+00
123, 1.314399987460000e-01, 2.592082934300244e-02, 9.040391546297875e-01, -2.141983155585102e-01, 8.625031111585960e-01
124, 1.422899961470000e-01, 2.645944839477400e-02, 9.575639158420476e-01, -9.472340213828664e-02, 8.185740916648625e-01
125, 1.534900069240000e-01, 2.700746521467571e-02, 9.462982405109891e-01, -1.198699988593993e-01, 8.321276930879131e-01
126, 1.650400012730000e-01, 2.756946177008782e-02, 9.293500502457676e-01, -1.577007807014117e-01, 8.494827005096499e-01
127, 1.769299954180000e-01, 2.814898339243743e-02, 9.246747998699753e-01, -1.681366074330910e-01, 8.546152400344105e-01
128, 1.891400069000000e-01, 2.874849925002545e-02, 9.240868445902864e-01, -1.694490076109678e-01, 8.557743850433426e-01
129, 2.016600072380000e-01, 2.937032325755293e-02, 9.221795940916991e-01, -1.737062631881716e-01, 8.580700929232378e-01
130, 2.144699990750000e-01, 3.001558649926873e-02, 9.193529216600033e-01, -1.800157998660641e-01, 8.613612618852114e-01
131, 2.275699973110000e-01, 3.068570742946193e-02, 9.165395358959004e-01, -1.862956788037937e-01, 8.645698768365555e-01
132, 2.409400045870000e-01, 3.138034299319621e-02, 9.137776656426182e-01, -1.924605677620130e-01, 8.677903747965364e-01
133, 2.545700073240000e-01, 3.209887522000174e-02, 9.106716857635718e-01, -1.993935585634558e-01, 8.712657499942335e-01
134, 2.684499919410000e-01, 3.283988855688243e-02, 9.070707878895663e-01, -2.074312770322181e-01, 8.752777113537606e-01
135, 2.825500071050000e-01, 3.360007085825362e-02, 9.028830359163398e-01, -2.167789376867416e-01, 8.798206801289398e-01
136, 2.968699932100000e-01, 3.437688317158751e-02, 8.981061139012055e-01, -2.274417100419519e-01, 8.849918483180899e-01
137, 3.113999962810000e-01, 3.516643519504233e-02, 8.926759781506389e-01, -2.395625487708953e-01, 8.908056902162330e-01
138, 3.261100053790000e-01, 3.596292817543553e-02, 8.865784912618974e-01, -2.531730105761220e-01, 8.972952640297133e-01
139, 3.409900069240000e-01, 3.676086426500368e-02, 8.797968796758546e-01, -2.683105364378245e-01, 9.045282723889939e-01
140, 3.560400009160000e-01, 3.755450926269797e-02, 8.723271621923387e-01, -2.849840129635296e-01, 9.124341068409093e-01
141, 3.712300062180000e-01, 3.833582207256204e-02, 8.642164031318941e-01, -3.030883858663079e-01, 9.210651362841815e-01
142, 3.865399956700000e-01, 3.909668773570268e-02, 8.554785958443264e-01, -3.225924199903429e-01, 9.303239953769160e-01
143, 4.019699990750000e-01, 3.982940598777957e-02, 8.461714562027689e-01, -3.433672852616766e-01, 9.402464888912687e-01
144, 4.174999892710000e-01, 4.052477312961338e-02, 8.362724508257734e-01, -3.654632794067558e-01, 9.507862036366701e-01
145, 4.331099987030000e-01, 4.117325556590541e-02, 8.258032880505122e-01, -3.888319463158211e-01, 9.620067284004135e-01
146, 4.487800002100000e-01, 4.176512497378808e-02, 8.147407468826142e-01, -4.135251185655933e-01, 9.738671817512701e-01
147, 4.645099937920000e-01, 4.229123895757683e-02, 8.031274291845587e-01, -4.394477027130386e-01, 9.864444194396026e-01
148, 4.802699983120000e-01, 4.274139457911724e-02, 7.909373053233910e-01, -4.666578006174308e-01, 9.996252101096470e-01
85, 4.473999887700000e-02, -3.379781606900319e-02, 9.785937578212620e-01, -4.778179057754015e-02, 8.176388384235074e-01
86, 3.844000026600000e-02, -3.163650504065908e-02, 1.006351602529725e+00, 1.417768421813566e-02, 7.890393422598293e-01
87, 3.260000050100000e-02, -2.941174439327965e-02, 1.037460931995587e+00, 8.361815177586279e-02, 7.569937174444454e-01
88, 2.723000012300000e-02, -2.712781569706268e-02, 1.072636853271737e+00, 1.621358331958410e-01, 7.206821164632123e-01
89, 2.232000045500000e-02, -2.477998351059579e-02, 1.112408567392449e+00, 2.509119807867162e-01, 6.792305862677215e-01
90, 1.789999939500000e-02, -2.238284946025197e-02, 1.157527881280379e+00, 3.516247350008462e-01, 6.316037697403585e-01
91, 1.394999958600000e-02, -1.992560282041320e-02, 1.208713686981655e+00, 4.658787655840504e-01, 5.763647159362780e-01
92, 1.049000024800000e-02, -1.741974032773793e-02, 1.265886591425774e+00, 5.934968558611037e-01, 5.118685628050050e-01
93, 7.519999985000000e-03, -1.486605323333275e-02, 1.328318899102415e+00, 7.328546854964613e-01, 4.364294208993958e-01
94, 5.040000193000000e-03, -1.226441036039779e-02, 1.393493158940990e+00, 8.783329440647094e-01, 3.477221432830088e-01
95, 3.049999941000000e-03, -9.612702218009229e-03, 1.456005372033885e+00, 1.017869134004208e+00, 2.442769640367740e-01
96, 1.560000004000000e-03, -6.925073051000888e-03, 1.502977958807931e+00, 1.122718658053418e+00, 1.268226349510324e-01
97, 5.600000150000000e-04, -4.178658242973291e-03, 1.523808072840995e+00, 1.169214448305793e+00, 4.895337157705222e-03
98, 5.999999800000000e-05, -1.376982305153132e-03, 1.498128061862769e+00, 1.111892995229396e+00, 1.442282184924807e-01
99, 0.000000000000000e+00, 0.000000000000000e+00, 1.442425319206304e+00, 9.875565160855003e-01, 2.532867423902974e-01
100, 5.999999800000000e-05, 1.269878485743125e-03, 1.392614887164547e+00, 8.763725159922914e-01, 3.563298840431842e-01
101, 5.600000150000000e-04, 3.619860149075762e-03, 1.275613662483206e+00, 6.152090680428715e-01, 5.151599232250532e-01
102, 1.560000004000000e-03, 5.723976281149200e-03, 1.068884078932428e+00, 1.537591047598846e-01, 7.051227039079089e-01
103, 3.049999941000000e-03, 7.628883296039811e-03, 8.998944991371706e-01, -2.234497787116728e-01, 8.674856914140294e-01
104, 5.040000193000000e-03, 9.376875667391140e-03, 7.714028271930924e-01, -5.102615464439902e-01, 1.000248473454763e+00
105, 7.519999985000000e-03, 1.097640196302052e-02, 6.798965713171308e-01, -7.145165818814045e-01, 1.106048444495628e+00
106, 1.049000024800000e-02, 1.244358848044202e-02, 6.189712524319286e-01, -8.505105972501593e-01, 1.184757043234228e+00
107, 1.394999958600000e-02, 1.379096843513495e-02, 5.799165294255109e-01, -9.376863182466275e-01, 1.239652661288021e+00
108, 1.789999939500000e-02, 1.502919639710671e-02, 5.551657683984671e-01, -9.929335526819931e-01, 1.276432228161986e+00
109, 2.232000045500000e-02, 1.616316087265337e-02, 5.400558584347031e-01, -1.026661030279681e+00, 1.299802633614022e+00
110, 2.723000012300000e-02, 1.720793186383004e-02, 5.314091799107961e-01, -1.045961651984830e+00, 1.313878435617266e+00
111, 3.260000050100000e-02, 1.816650512492433e-02, 5.271493464300500e-01, -1.055470208861496e+00, 1.321006692397032e+00
112, 3.844000026600000e-02, 1.905023745490514e-02, 5.264889976461469e-01, -1.056944201682708e+00, 1.322690804835454e+00
199, 1.000000000000000e+00, 0.000000000000000e+00, 1.272099835825681e+00, 6.073657049680374e-01, 4.499780103649515e-01
0, 9.997500181200000e-01, -3.633254500845769e-05, 1.285850235827239e+00, 6.380585621143728e-01, 4.995973276545623e-01
1, 9.990000128750000e-01, -1.454797205989588e-04, 1.259074728967088e+00, 5.782918057301077e-01, 5.255218371300262e-01
2, 9.977599978450000e-01, -3.275883144235679e-04, 1.244071870050802e+00, 5.448032813633968e-01, 5.432211091375581e-01
3, 9.960200190539999e-01, -5.903629306144900e-04, 1.234841364324736e+00, 5.241994739391425e-01, 5.543340608110662e-01
4, 9.937800168990000e-01, -9.486624089302510e-04, 1.228552503002115e+00, 5.101618370582918e-01, 5.615666450818954e-01
5, 9.910500049590000e-01, -1.426401003781954e-03, 1.222236082646199e+00, 4.960626844781225e-01, 5.688235815555733e-01
6, 9.878399968150000e-01, -2.055213138038402e-03, 1.212357847591013e+00, 4.740130526585118e-01, 5.792469586695294e-01
7, 9.841300249100000e-01, -2.872445540002377e-03, 1.196351170185008e+00, 4.382838620201072e-01, 5.959038094691749e-01
183, 9.375399947170000e-01, 5.220396929715882e-03, 1.147676045550787e+00, 3.296340302472920e-01, 6.249206602246422e-01
184, 9.449599981310000e-01, 4.342583335865325e-03, 1.158282812091756e+00, 3.533098484190985e-01, 6.137100804498742e-01
185, 9.519400000570000e-01, 3.638681137210325e-03, 1.164652937076709e+00, 3.675288774033691e-01, 6.072503921791511e-01
186, 9.584699869160000e-01, 3.113799719486402e-03, 1.165303990101249e+00, 3.689821207617164e-01, 6.070762039151526e-01
187, 9.645400047300000e-01, 2.745669116480240e-03, 1.159796789515857e+00, 3.566892623121807e-01, 6.134664476973871e-01
