"PointID"	"x"	"y"	"Conservative_1"	"Conservative_2"	"Conservative_3"	"Conservative_4"	"Pressure"	"Temperature"	"C<sub>p</sub>"	"Mach"
0	9.997500181200000e-01	-3.633242765842741e-05	1.199828438777818e+00	7.195761273883282e-01	1.010184772195573e-01	3.446400200432942e+00	1.290548408040322e+00	1.075610784284221e+00	6.485455536614325e-01	4.935191062365097e-01	
1	9.990000128750000e-01	-1.454723181065886e-04	1.181603077960622e+00	7.459518745984036e-01	1.066669474974044e-01	3.400789245410155e+00	1.264205244916883e+00	1.069906865086055e+00	5.897438502608986e-01	5.210717195915721e-01	
2	9.977599978450000e-01	-3.275072682679459e-04	1.171178329644156e+00	7.640429937195425e-01	1.128621017924915e-01	3.375500361032493e+00	1.248336997670148e+00	1.065881229248355e+00	5.543236555137231e-01	5.398381932128100e-01	
3	9.960200190539999e-01	-5.899265710451279e-04	1.164738615818283e+00	7.748527045088668e-01	1.197576962456346e-01	3.359979599820925e+00	1.238433629503126e+00	1.063271718378693e+00	5.322179229980486e-01	5.517351150256427e-01	
4	9.937800168990000e-01	-9.470927319126346e-04	1.160165195076585e+00	7.807450377870837e-01	1.301701006469232e-01	3.348828817795656e+00	1.231528447592983e+00	1.061511285478347e+00	5.168045705200520e-01	5.596504143369652e-01	
5	9.910500049590000e-01	-1.422090635038548e-03	1.155699739756858e+00	7.855189546213054e-01	1.447837864849455e-01	3.337955187542346e+00	1.224772363748423e+00	1.059766928740589e+00	5.017240262241578e-01	5.674099304922166e-01	
6	9.878399968150000e-01	-2.045504684244612e-03	1.148814885304180e+00	7.913251907028235e-01	1.632524214715336e-01	3.320858368856562e+00	1.214687628260345e+00	1.057339736626693e+00	4.792134559382709e-01	5.780751860641384e-01	
7	9.841300249100000e-01	-2.853650175274698e-03	1.137897061629079e+00	8.009905195045960e-01	1.836630880214294e-01	3.293669986660573e+00	1.198772206616234e+00	1.053497936711430e+00	4.436879611969501e-01	5.946621623730615e-01	
8	9.799500107769999e-01	-3.858841918736073e-03	1.121715949740372e+00	8.159998513062902e-01	2.028677318431087e-01	3.253298326290793e+00	1.175260487523365e+00	1.047734489106076e+00	3.912064453646550e-01	6.189286336335249e-01	
9	9.752799868580000e-01	-5.058238752022600e-03	1.100361454430856e+00	8.364063922016883e-01	2.169446378135687e-01	3.199970752389795e+00	1.144280052400793e+00	1.039912882983214e+00	3.220536883946277e-01	6.508155836824031e-01	
10	9.701499938960000e-01	-6.405025181028574e-03	1.075073330562514e+00	8.604943679870019e-01	2.227117416404830e-01	3.136706404438463e+00	1.107706340760116e+00	1.030354217958814e+00	2.404159391966875e-01	6.883862735204690e-01	
11	9.645400047300000e-01	-7.840729105179321e-03	1.048463113107115e+00	8.849365507907370e-01	2.185923569060640e-01	3.069894856987927e+00	1.069460174578833e+00	1.020026514246642e+00	1.550450325420380e-01	7.275289033639409e-01	
12	9.584699869160000e-01	-9.290015396273820e-03	1.024896797978523e+00	9.060901310565913e-01	2.055529576470443e-01	3.010550684096071e+00	1.035764026004862e+00	1.010603241270509e+00	7.983041518942301e-02	7.621389091700560e-01	
13	9.519400000570000e-01	-1.069753008282138e-02	1.008363167568784e+00	9.215744677237707e-01	1.873877055504743e-01	2.968896628112951e+00	1.012142951783608e+00	1.003748435421276e+00	2.710480308841176e-02	7.867455343678887e-01	
14	9.449599981310000e-01	-1.203532552152988e-02	9.999900827851586e-01	9.308003723118174e-01	1.688213666930008e-01	2.947830166120665e+00	1.000152294077829e+00	1.000162212901371e+00	3.399421380104581e-04	7.994473961109159e-01	
15	9.375399947170000e-01	-1.330779933738330e-02	9.979321607867202e-01	9.347629245859178e-01	1.535216734065043e-01	2.942642678505490e+00	9.972150611640401e-01	9.992814144579582e-01	-6.216381330267570e-03	8.025500829187453e-01	
16	9.296900033950000e-01	-1.454226097939031e-02	9.990416319250262e-01	9.355168589373818e-01	1.431266358527250e-01	2.945389431070642e+00	9.988485246370451e-01	9.998067074666261e-01	-2.570257506595762e-03	8.007004828054967e-01	
17	9.214000105860000e-01	-1.577699053116308e-02	1.000484435742455e+00	9.351561033931279e-01	1.373956340680249e-01	2.948947542458437e+00	1.000986633922185e+00	1.000501955014780e+00	2.202307862019863e-03	7.982488679169412e-01	
18	9.126999974250000e-01	-1.703923875407474e-02	1.000511782050965e+00	9.351395562181019e-01	1.349771637437727e-01	2.948922698395742e+00	1.001119441812573e+00	1.000607348931327e+00	2.498754045922512e-03	7.978768633382152e-01	
19	9.035800099370001e-01	-1.835003820341511e-02	9.985235193766194e-01	9.360788197457947e-01	1.342391987981126e-01	2.943792602245857e+00	9.983998339588546e-01	9.998761316930803e-01	-3.571799198985345e-03	8.004558602573899e-01	
20	8.940600156780000e-01	-1.971303507181697e-02	9.947401144808635e-01	9.380275053862832e-01	1.338859477807141e-01	2.934120830589633e+00	9.931346413120864e-01	9.983860375736281e-01	-1.532446135695001e-02	8.056974555235230e-01	
21	8.841500282290000e-01	-2.112361888513443e-02	9.897186773241617e-01	9.406846600822364e-01	1.331538929866606e-01	2.921306820269592e+00	9.861239092087358e-01	9.963678889791747e-01	-3.097341694478610e-02	8.127673533807049e-01	
22	8.738499879840000e-01	-2.257358421919192e-02	9.840444612533066e-01	9.436745936761584e-01	1.317575474375713e-01	2.906820916786344e+00	9.782078850077816e-01	9.940687880727552e-01	-4.864311382191618e-02	8.207817560429598e-01	
23	8.631799817090000e-01	-2.405083033706479e-02	9.781890802629937e-01	9.467069667383621e-01	1.297244788805638e-01	2.891857128528615e+00	9.700545025604660e-01	9.916840436407852e-01	-6.684262821324556e-02	8.290515273731920e-01	
24	8.521599769590000e-01	-2.554469963441679e-02	9.724301971418924e-01	9.495950622571543e-01	1.272229240235268e-01	2.877116842044613e+00	9.620585940065360e-01	9.893343469116449e-01	-8.469063837826778e-02	8.371582850899862e-01	
25	8.407700061800000e-01	-2.705203433021391e-02	9.668786687071131e-01	9.522731082151199e-01	1.244523751341195e-01	2.862885221387259e+00	9.543726604074599e-01	9.870655867127820e-01	-1.018467401619198e-01	8.449481067869927e-01	
26	8.290500044819999e-01	-2.856358973799169e-02	9.615258844637291e-01	9.547361501412818e-01	1.215464189288034e-01	2.849140557828960e+00	9.469844160990287e-01	9.848766750852367e-01	-1.183383569218109e-01	8.524298584321276e-01	
27	8.170099854470000e-01	-3.007552212907793e-02	9.563252753349545e-01	9.570261690529898e-01	1.185942169581821e-01	2.835771252623511e+00	9.398216040629274e-01	9.827426172896597e-01	-1.343267766452514e-01	8.596931096118776e-01	
28	8.046399950980000e-01	-3.158700876799383e-02	9.512122390795040e-01	9.591536303842841e-01	1.156215914538003e-01	2.822606819099242e+00	9.327996599531693e-01	9.806430380414863e-01	-1.500007590331043e-01	8.668100876816794e-01	
29	7.919700145720000e-01	-3.309239586197076e-02	9.461553613644995e-01	9.611508179403899e-01	1.126162530052357e-01	2.809571025797789e+00	9.258707907759878e-01	9.785610572884582e-01	-1.654669848750273e-01	8.738399666490623e-01	
30	7.790099978450000e-01	-3.458842157728147e-02	9.411386174359961e-01	9.630527528800061e-01	1.095669201945296e-01	2.796630128287169e+00	9.190054748328302e-01	9.764825901380346e-01	-1.807913508195754e-01	8.808315635956460e-01	
31	7.657799720760000e-01	-3.607046919155386e-02	9.361182441054099e-01	9.648516491217467e-01	1.064530727018593e-01	2.783663984178759e+00	9.121510765292610e-01	9.743972861045427e-01	-1.960913470328996e-01	8.878204487240198e-01	
32	7.522799968720000e-01	-3.753598119795649e-02	9.310602091013690e-01	9.665618347423217e-01	1.032632896628024e-01	2.770585594280151e+00	9.052602349277674e-01	9.722896823197903e-01	-2.114726898933763e-01	8.948587122205983e-01	
33	7.385200262070000e-01	-3.898111054905155e-02	9.259809630975834e-01	9.681810210565225e-01	9.999013864499080e-02	2.757437969479280e+00	8.983548867023348e-01	9.701656108535601e-01	-2.268864136108599e-01	9.019269763830813e-01	
34	7.245299816130000e-01	-4.039998589345952e-02	9.209317515289986e-01	9.696965859694857e-01	9.661961116109589e-02	2.744353249883142e+00	8.915052099226710e-01	9.680469898475416e-01	-2.421758707083236e-01	9.089528899343786e-01	
35	7.103199958800001e-01	-4.178897928483925e-02	9.159609269208414e-01	9.710964454712618e-01	9.316660055948017e-02	2.731456412767463e+00	8.847771240897444e-01	9.659550949013443e-01	-2.571939194425348e-01	9.158671853060540e-01	
36	6.958900094030001e-01	-4.314552875124226e-02	9.110872081205228e-01	9.723951351668374e-01	8.962752991947680e-02	2.718800788787390e+00	8.781912009107138e-01	9.638936789841777e-01	-2.718946408242996e-01	9.226590839707388e-01	
37	6.812700033190000e-01	-4.446443807000339e-02	9.063150137676681e-01	9.735737639974511e-01	8.602088253155664e-02	2.706392095243623e+00	8.717591680457096e-01	9.618721468837803e-01	-2.862518570408267e-01	9.292993337115235e-01	
38	6.664699912070000e-01	-4.574270671253637e-02	9.016557639267714e-01	9.746424396152841e-01	8.235304039440811e-02	2.694263022899419e+00	8.654934213273691e-01	9.598934049487881e-01	-3.002378988228369e-01	9.357801980019379e-01	
39	6.514999866490000e-01	-4.697755880170244e-02	8.971258944108045e-01	9.756165176039011e-01	7.863594193007392e-02	2.682461311156688e+00	8.594111103513864e-01	9.579604330959732e-01	-3.138144858227983e-01	9.420936954625535e-01	
40	6.363800168040000e-01	-4.816568375146837e-02	8.927251948188116e-01	9.764769241690897e-01	7.488281867802768e-02	2.670979852618643e+00	8.535185117918715e-01	9.560820247322612e-01	-3.269676076074296e-01	9.482129217832128e-01	
41	6.211299896240000e-01	-4.930416957717228e-02	8.884642045405984e-01	9.772586117881752e-01	7.110050729846437e-02	2.659856655130957e+00	8.478192275807176e-01	9.542525441631078e-01	-3.396892241501839e-01	9.541579731492229e-01	
42	6.057599782940000e-01	-5.039116194795929e-02	8.843253747300952e-01	9.779352146181698e-01	6.730752030252403e-02	2.649036490839889e+00	8.422992023108022e-01	9.524765729671394e-01	-3.520107091276736e-01	9.599155686372650e-01	
43	5.902799963950000e-01	-5.142502287064837e-02	8.803252915555305e-01	9.785438092849239e-01	6.350535782299681e-02	2.638574030133927e+00	8.369692482798641e-01	9.507499742520673e-01	-3.639079279467320e-01	9.655006262326452e-01	
44	5.747100114820000e-01	-5.240369957288050e-02	8.764788572211504e-01	9.790517641874120e-01	5.970155938792811e-02	2.628497508759379e+00	8.318599638052551e-01	9.490930179909212e-01	-3.753125807918414e-01	9.708491461727932e-01	
45	5.590599775310000e-01	-5.332603219775180e-02	8.728377127375583e-01	9.794999718769042e-01	5.588748798294423e-02	2.618955110759364e+00	8.270270448638174e-01	9.475152514548659e-01	-3.861003462861219e-01	9.759320524831501e-01	
46	5.433599948880000e-01	-5.418992727260990e-02	8.693913909143942e-01	9.798657421760026e-01	5.206691685741988e-02	2.609910916336162e+00	8.224650863291527e-01	9.460239598923498e-01	-3.962832894438555e-01	9.807276244115318e-01	
47	5.276100039480000e-01	-5.499519150147169e-02	8.660760234832500e-01	9.802011233282512e-01	4.825190109981890e-02	2.601212479535222e+00	8.180743807316682e-01	9.445757168539028e-01	-4.060839715810979e-01	9.853768158005319e-01	
48	5.118399858470000e-01	-5.574018239442215e-02	8.627444647583939e-01	9.804742784848461e-01	4.446597220755203e-02	2.592461459524856e+00	8.136723348638976e-01	9.431208985985921e-01	-4.159099668216573e-01	9.900394082963037e-01	
49	4.960500001910000e-01	-5.642483954405873e-02	8.593870376882934e-01	9.807243947603429e-01	4.071349939975951e-02	2.583645035135276e+00	8.092335644735996e-01	9.416404122761686e-01	-4.258179364428580e-01	9.947765151054492e-01	
50	4.802699983120000e-01	-5.704782275004424e-02	8.562060081774790e-01	9.808924213876794e-01	3.695816463713950e-02	2.575275847324290e+00	8.050439789493484e-01	9.402456549714782e-01	-4.351696898452044e-01	9.992323246224499e-01	
51	4.645099937920000e-01	-5.760873506117491e-02	8.535551693574580e-01	9.810054191646067e-01	3.314314151768542e-02	2.568292053109064e+00	8.015622045888472e-01	9.390865797137050e-01	-4.429415076141804e-01	1.002930154005680e+00	
52	4.487800002100000e-01	-5.810711027949231e-02	8.515482389281974e-01	9.810482934442032e-01	2.924597617945295e-02	2.562985843073014e+00	7.989450099086662e-01	9.382263662646521e-01	-4.487834600252986e-01	1.005671605733009e+00	
53	4.331099987030000e-01	-5.854186900454899e-02	8.498932386390149e-01	9.810778687356034e-01	2.525369885640436e-02	2.558606596004278e+00	7.967902801899722e-01	9.375180834076531e-01	-4.535931245759549e-01	1.007927028908984e+00	
54	4.174999892710000e-01	-5.891277857381600e-02	8.479173444320149e-01	9.811134141085660e-01	2.119860975808989e-02	2.553391819924808e+00	7.942041832735911e-01	9.366528335442839e-01	-4.593656623357342e-01	1.010680071471031e+00	
55	4.019699990750000e-01	-5.921894768721647e-02	8.448694704056665e-01	9.811871969363968e-01	1.712466052206405e-02	2.545380174866900e+00	7.901827555939755e-01	9.352719955836104e-01	-4.683420634063046e-01	1.015068631366794e+00	
56	3.865399956700000e-01	-5.945948904453196e-02	8.402504057647219e-01	9.812259282925903e-01	1.307682339623521e-02	2.533241624600446e+00	7.840851388293918e-01	9.331565131656042e-01	-4.819528151129648e-01	1.021780441005728e+00	
57	3.712300062180000e-01	-5.963351212628139e-02	8.342086244819691e-01	9.811488704048987e-01	9.041870047392245e-03	2.517348294152602e+00	7.761253862158684e-01	9.303732464979376e-01	-4.997201200538653e-01	1.030590296453579e+00	
58	3.560400009160000e-01	-5.974022365921987e-02	8.276238360482852e-01	9.808247569719423e-01	4.912119988077772e-03	2.499971103403922e+00	7.675056899209205e-01	9.273605429074941e-01	-5.189605135693739e-01	1.040101088449988e+00	
59	3.409900069240000e-01	-5.977847059532467e-02	8.217523793274438e-01	9.803293958858104e-01	5.512390966638483e-04	2.484426976262988e+00	7.598691791490005e-01	9.246936160634048e-01	-5.360062965424095e-01	1.048499376130152e+00	
60	3.261100053790000e-01	-5.974715241745741e-02	8.174800795790290e-01	9.798255866145928e-01	-4.077385487459150e-03	2.473082452544562e+00	7.543465711247672e-01	9.227705848358129e-01	-5.483335465965018e-01	1.054543426924859e+00	
61	3.113999962810000e-01	-5.964511081093749e-02	8.149994867349541e-01	9.794125175111691e-01	-8.952196061451870e-03	2.466467073196752e+00	7.511685162892907e-01	9.216797415402278e-01	-5.554274189971190e-01	1.057967720989307e+00	
62	2.968699932100000e-01	-5.947098968565532e-02	8.140380384810362e-01	9.791630167376034e-01	-1.406186711609200e-02	2.463889260635030e+00	7.499505103633545e-01	9.212720719571454e-01	-5.581461822246552e-01	1.059246681112036e+00	
63	2.825500071050000e-01	-5.922369288484262e-02	8.141630440409859e-01	9.790118593600800e-01	-1.939502520160120e-02	2.464195311361147e+00	7.501379843260622e-01	9.213608868843469e-01	-5.577277135578970e-01	1.058968082000723e+00	
64	2.684499919410000e-01	-5.890193508419822e-02	8.150648232753998e-01	9.789596324472349e-01	-2.498990513778400e-02	2.466577802217998e+00	7.513157373901512e-01	9.217864836454751e-01	-5.550988004684124e-01	1.057632776257333e+00	
65	2.545700073240000e-01	-5.850403529178470e-02	8.165444276590234e-01	9.789157985607586e-01	-3.087454505789316e-02	2.470488238609397e+00	7.532468111452559e-01	9.224811114133286e-01	-5.507883679793395e-01	1.055452413339160e+00	
66	2.409400045870000e-01	-5.802913431084788e-02	8.185525520111486e-01	9.789030582637972e-01	-3.710523922954196e-02	2.475809041376511e+00	7.558541267423490e-01	9.234032987683538e-01	-5.449684670929711e-01	1.052555874046117e+00	
67	2.275699973110000e-01	-5.747594861524290e-02	8.210055636065006e-01	9.788497347192034e-01	-4.369883302037480e-02	2.482300720158785e+00	7.590469907986629e-01	9.245333094508315e-01	-5.378415383958418e-01	1.049003584479680e+00	
68	2.144699990750000e-01	-5.684318939239673e-02	8.238173322313024e-01	9.787693359038243e-01	-5.068891072019037e-02	2.489746903559075e+00	7.627017307241306e-01	9.258141348621053e-01	-5.296836367764942e-01	1.044973137653935e+00	
69	2.016600072380000e-01	-5.613017598889961e-02	8.268752166873760e-01	9.785946641505346e-01	-5.809540295414072e-02	2.497834323504042e+00	7.666869047408545e-01	9.272099214828963e-01	-5.207881590605925e-01	1.040575917365111e+00	
70	1.891400069000000e-01	-5.533522984937854e-02	8.301982601791882e-01	9.783393095523855e-01	-6.596520752289568e-02	2.506622788558155e+00	7.710178872365275e-01	9.287153734459922e-01	-5.111207874184653e-01	1.035827203466689e+00	
71	1.769299954180000e-01	-5.445793222622503e-02	8.339492966660765e-01	9.779494128365116e-01	-7.436239808338636e-02	2.516527779031037e+00	7.759220699257109e-01	9.304187593030607e-01	-5.001739510586811e-01	1.030446419054652e+00	
72	1.650400012730000e-01	-5.349744468674842e-02	8.383752218236209e-01	9.774268682175042e-01	-8.335731237559393e-02	2.528206697356129e+00	7.817167998014255e-01	9.324187779560653e-01	-4.872392861575324e-01	1.024117838257445e+00	
73	1.534900069240000e-01	-5.245399315414685e-02	8.435441359831544e-01	9.766915597420827e-01	-9.298247206189485e-02	2.541822438328383e+00	7.885080436879172e-01	9.347561201037902e-01	-4.720802596251849e-01	1.016706633900489e+00	
74	1.422899961470000e-01	-5.132729728232345e-02	8.493797588737104e-01	9.757308230073579e-01	-1.032805564163547e-01	2.557183448242901e+00	7.961861990947818e-01	9.373736432694560e-01	-4.549415198777191e-01	1.008386776180731e+00	
75	1.314399987460000e-01	-5.011609787955904e-02	8.557356282848976e-01	9.744044419377492e-01	-1.143034132002022e-01	2.573873039409076e+00	8.045897177779323e-01	9.402316453628629e-01	-4.361836656742583e-01	9.992770478178976e-01	
76	1.209499984980000e-01	-4.882014645166835e-02	8.626764783647179e-01	9.727323505955289e-01	-1.261620442308781e-01	2.592086580588756e+00	8.137788027492473e-01	9.433186404848311e-01	-4.156723152918587e-01	9.894061069799186e-01	
77	1.108499988910000e-01	-4.744223340707908e-02	8.703804527972503e-01	9.706198904470549e-01	-1.389231175983711e-01	2.612283090773208e+00	8.239977501572390e-01	9.467098525811956e-01	-3.928621648275916e-01	9.785230309160861e-01	
78	1.011300012470000e-01	-4.598018348424070e-02	8.789047378624180e-01	9.678364672053104e-01	-1.526625380210389e-01	2.634565452326996e+00	8.353694503180298e-01	9.504664320614882e-01	-3.674789055401121e-01	9.664166524921617e-01	
79	9.181000292300000e-02	-4.443611226077889e-02	8.882885509736501e-01	9.642273237105601e-01	-1.675044258798584e-01	2.659022327943851e+00	8.479600717096255e-01	9.545997984328173e-01	-3.393748399338716e-01	9.530306448282833e-01	
80	8.290000259900000e-02	-4.281114000914960e-02	8.986437280976330e-01	9.597021801026465e-01	-1.835672557435717e-01	2.685961588394771e+00	8.619032743860607e-01	9.591156622331866e-01	-3.082516196739716e-01	9.383225180394645e-01	
81	7.440000027400000e-02	-4.110462394052702e-02	9.100291398032262e-01	9.539692604601526e-01	-2.009633770672719e-01	2.715497667973322e+00	8.773170463277360e-01	9.640537955932231e-01	-2.738458787327321e-01	9.221322917658006e-01	
82	6.633000075800000e-02	-3.932010513353917e-02	9.225961805676861e-01	9.467652303916451e-01	-2.198484075175832e-01	2.748014875594184e+00	8.944147872859091e-01	9.694542489169677e-01	-2.356812783796673e-01	9.042887023857383e-01	
83	5.869000032500000e-02	-3.745728424811080e-02	9.364626154185284e-01	9.376731995361287e-01	-2.403570930414551e-01	2.783778545327998e+00	9.133961020734641e-01	9.753684632303713e-01	-1.933122721574462e-01	8.845687079772502e-01	
84	5.149000138000000e-02	-3.551818171105831e-02	9.518184185832018e-01	9.261779132664902e-01	-2.626100225088278e-01	2.823240227965378e+00	9.345594622555465e-01	9.818673856371205e-01	-1.460726288938693e-01	8.626633323642580e-01	
85	4.473999887700000e-02	-3.350532123466046e-02	9.689406389666745e-01	9.115510534522249e-01	-2.867253423663342e-01	2.867057178000580e+00	9.583414083979765e-01	9.890610114361585e-01	-9.298792768308807e-02	8.380987237280073e-01	
86	3.844000026600000e-02	-3.141839366738859e-02	9.880574045578159e-01	8.928609334253874e-01	-3.127741125377588e-01	2.915743771489285e+00	9.851282186774651e-01	9.970354092112073e-01	-3.319594045208674e-02	8.104325874548297e-01	
