"Global_Index", "x_coord", "y_coord", "Pressure", "Pressure_Coefficient", "Mach_Number"
149, 4.960500001910000e-01, 4.664839436446759e-02, 7.822908904738610e-01, -4.859578337637031e-01, 1.022230415685312e+00
150, 5.118399858470000e-01, 4.624894153984403e-02, 7.886158218613297e-01, -4.718396833452462e-01, 1.015425611096891e+00
151, 5.276100039480000e-01, 4.577009613853174e-02, 7.948450056714391e-01, -4.579352551976805e-01, 1.008782837125959e+00
152, 5.433599948880000e-01, 4.521016903705200e-02, 8.013604746670949e-01, -4.433917976180917e-01, 1.001871181649584e+00
153, 5.590599775310000e-01, 4.456879599525141e-02, 8.086178093946182e-01, -4.271923897441557e-01, 9.941976831052747e-01
154, 5.747100114820000e-01, 4.384485541624217e-02, 8.167096449595941e-01, -4.091302567866203e-01, 9.856437521035980e-01
155, 5.902799963950000e-01, 4.303898933447292e-02, 8.253407642140504e-01, -3.898643655936374e-01, 9.765298937878006e-01
156, 6.057599782940000e-01, 4.215146864590076e-02, 8.342108809343292e-01, -3.700649979144439e-01, 9.672170417133762e-01
157, 6.211299896240000e-01, 4.118367219442500e-02, 8.433372634802617e-01, -3.496936083029872e-01, 9.576528660439859e-01
158, 6.363800168040000e-01, 4.013699410680388e-02, 8.529354091121846e-01, -3.282691760888737e-01, 9.476440232343797e-01
159, 6.514999866490000e-01, 3.901338207635468e-02, 8.630810604133461e-01, -3.056226330059239e-01, 9.370930280874126e-01
160, 6.664699912070000e-01, 3.781619070068108e-02, 8.737033375494363e-01, -2.819121929700082e-01, 9.260915780617699e-01
161, 6.812700033190000e-01, 3.654963415193480e-02, 8.846922376068379e-01, -2.573833981990226e-01, 9.147438225851401e-01
162, 6.958900094030001e-01, 3.521785897853375e-02, 8.959813701282815e-01, -2.321844416779431e-01, 9.031277136540102e-01
163, 7.103199958800001e-01, 3.382567538843388e-02, 9.075575290682603e-01, -2.063448011869191e-01, 8.912542218735537e-01
164, 7.245299816130000e-01, 3.238064534121444e-02, 9.193830800363292e-01, -1.799484820617652e-01, 8.791595689283718e-01
165, 7.385200262070000e-01, 3.088811118507920e-02, 9.314404102848618e-01, -1.530347984712906e-01, 8.668622326362407e-01
166, 7.522799968720000e-01, 2.935501553032267e-02, 9.436654149196159e-01, -1.257468416972860e-01, 8.544162802903003e-01
167, 7.657799720760000e-01, 2.779125992028428e-02, 9.560231744336400e-01, -9.816255706776776e-02, 8.418823210671691e-01
168, 7.790099978450000e-01, 2.620521956291854e-02, 9.684383282631607e-01, -7.045016012687350e-02, 8.292644983041804e-01
169, 7.919700145720000e-01, 2.460454011426590e-02, 9.808832424786105e-01, -4.267133375310162e-02, 8.166634553310028e-01
170, 8.046399950980000e-01, 2.299974496191363e-02, 9.932524522939147e-01, -1.506149041536902e-02, 8.041527184461880e-01
171, 8.170099854470000e-01, 2.140047342136676e-02, 1.005441178470556e+00, 1.214548765749089e-02, 7.918077053912854e-01
172, 8.290500044819999e-01, 1.981907783413407e-02, 1.017341367859504e+00, 3.870841040067861e-02, 7.797751110720076e-01
173, 8.407700061800000e-01, 1.826235072106745e-02, 1.028835906498720e+00, 6.436586272035671e-02, 7.681568834157667e-01
174, 8.521599769590000e-01, 1.673873550285480e-02, 1.039853482957102e+00, 8.895866731495934e-02, 7.570227712402979e-01
175, 8.631799817090000e-01, 1.525907167858183e-02, 1.050360647819799e+00, 1.124121603120521e-01, 7.464011956689165e-01
176, 8.738499879840000e-01, 1.382384155613537e-02, 1.060427412001976e+00, 1.348826160758390e-01, 7.361985398240960e-01
177, 8.841500282290000e-01, 1.243626623641032e-02, 1.070303393942219e+00, 1.569272186210247e-01, 7.261679468631536e-01
178, 8.940600156780000e-01, 1.109754906823116e-02, 1.080378112254858e+00, 1.794154291403088e-01, 7.158614273612078e-01
179, 9.035800099370001e-01, 9.806000793261717e-03, 1.091202240797974e+00, 2.035764303526201e-01, 7.047354262516170e-01
180, 9.126999974250000e-01, 8.564326866820269e-03, 1.103225240714255e+00, 2.304134837371766e-01, 6.922785344758806e-01
181, 9.214000105860000e-01, 7.383472661990969e-03, 1.116574857485980e+00, 2.602117354597772e-01, 6.783952520610896e-01
182, 9.296900033950000e-01, 6.279999682951272e-03, 1.130696299789508e+00, 2.917328120301519e-01, 6.636653326656459e-01
31, 7.657799720760000e-01, -3.607144971511794e-02, 9.121415941119865e-01, -1.961125131428873e-01, 8.878299931990823e-01
32, 7.522799968720000e-01, -3.753697286240180e-02, 9.052505862232372e-01, -2.114942271802742e-01, 8.948684438408629e-01
33, 7.385200262070000e-01, -3.898211074544657e-02, 8.983450651280780e-01, -2.269083367676831e-01, 9.019369078260659e-01
34, 7.245299816130000e-01, -4.040099189052557e-02, 8.914952209425520e-01, -2.421981675389465e-01, 9.089630161870087e-01
35, 7.103199958800001e-01, -4.178998825269720e-02, 8.847669742789736e-01, -2.572165752701484e-01, 9.158774990701837e-01
36, 6.958900094030001e-01, -4.314653778054046e-02, 8.781808993631135e-01, -2.719176353501931e-01, 9.226695766740751e-01
37, 6.812700033190000e-01, -4.446544420471153e-02, 8.717487510038316e-01, -2.862751093664472e-01, 9.293099674264028e-01
38, 6.664699912070000e-01, -4.574370699756784e-02, 8.654829422401173e-01, -3.002612896425952e-01, 9.357909181032762e-01
39, 6.514999866490000e-01, -4.697855033185804e-02, 8.594006265043165e-01, -3.138378872671507e-01, 9.421044465862224e-01
40, 6.363800168040000e-01, -4.816666373478010e-02, 8.535080607206519e-01, -3.269909358914020e-01, 9.482236640172310e-01
41, 6.211299896240000e-01, -4.930513540025794e-02, 8.478088500075273e-01, -3.397123883760552e-01, 9.541686613829256e-01
42, 6.057599782940000e-01, -5.039211123108194e-02, 8.422889458225715e-01, -3.520336030746172e-01, 9.599261506192905e-01
43, 5.902799963950000e-01, -5.142595352806804e-02, 8.369592079818537e-01, -3.639303393262193e-01, 9.655109991669690e-01
44, 5.747100114820000e-01, -5.240460988563466e-02, 8.318502599936949e-01, -3.753342410855025e-01, 9.708591804071768e-01
45, 5.590599775310000e-01, -5.332692085874783e-02, 8.270177696812050e-01, -3.861210498187388e-01, 9.759416559678199e-01
46, 5.433599948880000e-01, -5.419079346654013e-02, 8.224562769461642e-01, -3.963029532451692e-01, 9.807367545530210e-01
47, 5.276100039480000e-01, -5.499603490635396e-02, 8.180660211313043e-01, -4.061026314033386e-01, 9.853854912476083e-01
48, 5.118399858470000e-01, -5.574100325942249e-02, 8.136644074440691e-01, -4.159276619552029e-01, 9.900476466819317e-01
49, 4.960500001910000e-01, -5.642563867186307e-02, 8.092261331104420e-01, -4.258345243070491e-01, 9.947842434099656e-01
50, 4.802699983120000e-01, -5.704860155278894e-02, 8.050372149323209e-01, -4.351847880974979e-01, 9.992393545012502e-01
51, 4.645099937920000e-01, -5.760949553487277e-02, 8.015563713279569e-01, -4.429545282858106e-01, 1.002936195526329e+00
52, 4.487800002100000e-01, -5.810785499745627e-02, 7.989404894798459e-01, -4.487935502682012e-01, 1.005676228458241e+00
53, 4.331099987030000e-01, -5.854260111485950e-02, 7.967875270089433e-01, -4.535992700693230e-01, 1.007929725092955e+00
54, 4.174999892710000e-01, -5.891350174001410e-02, 7.942036024893220e-01, -4.593669587291920e-01, 1.010680385947728e+00
55, 4.019699990750000e-01, -5.921966606348136e-02, 7.901843661670997e-01, -4.683384683770095e-01, 1.015066541491846e+00
56, 3.865399956700000e-01, -5.946020721707940e-02, 7.840881886565805e-01, -4.819460074629900e-01, 1.021776797629744e+00
57, 3.712300062180000e-01, -5.963423504383832e-02, 7.761283091335315e-01, -4.997135956840815e-01, 1.030586854296578e+00
58, 3.560400009160000e-01, -5.974095657057767e-02, 7.675066724009858e-01, -5.189583205335139e-01, 1.040099878692255e+00
59, 3.409900069240000e-01, -5.977921896770725e-02, 7.598672328922995e-01, -5.360106408654028e-01, 1.048501455190565e+00
60, 3.261100053790000e-01, -5.974792182801476e-02, 7.543417890026552e-01, -5.483442209762159e-01, 1.054548666853998e+00
61, 3.113999962810000e-01, -5.964590689273390e-02, 7.511615378917090e-01, -5.554429957774352e-01, 1.057975386225787e+00
62, 2.968699932100000e-01, -5.947181803328135e-02, 7.499419503842157e-01, -5.581652893209470e-01, 1.059256079659163e+00
63, 2.825500071050000e-01, -5.922455890930878e-02, 7.501281876213965e-01, -5.577495812022398e-01, 1.058978826830024e+00
64, 2.684499919410000e-01, -5.890284395547407e-02, 7.513048085555717e-01, -5.551231951884561e-01, 1.057644758163158e+00
65, 2.545700073240000e-01, -5.850499188504118e-02, 7.532347215382814e-01, -5.508153537091933e-01, 1.055465661959932e+00
66, 2.409400045870000e-01, -5.803014301247882e-02, 7.558407882975988e-01, -5.449982404071455e-01, 1.052570484431514e+00
67, 2.275699973110000e-01, -5.747701329259695e-02, 7.590322775672043e-01, -5.378743804303476e-01, 1.049019688267259e+00
68, 2.144699990750000e-01, -5.684431330944957e-02, 7.626855009386796e-01, -5.297198639761617e-01, 1.044990884408352e+00
69, 2.016600072380000e-01, -5.613136167539477e-02, 7.666690518896856e-01, -5.208280091748090e-01, 1.040595409820689e+00
70, 1.891400069000000e-01, -5.533647911748575e-02, 7.709984230170045e-01, -5.111642343370435e-01, 1.035848412382722e+00
71, 1.769299954180000e-01, -5.445924599938089e-02, 7.759011560109443e-01, -5.002206339041421e-01, 1.030469145106077e+00
72, 1.650400012730000e-01, -5.349882298011854e-02, 7.816946628496391e-01, -4.872886989963414e-01, 1.024141811534756e+00
73, 1.534900069240000e-01, -5.245543495901361e-02, 7.884848242264036e-01, -4.721320887803490e-01, 1.016731680556036e+00
74, 1.422899961470000e-01, -5.132880056782976e-02, 7.961619165580434e-01, -4.549957219686532e-01, 1.008412861610830e+00
75, 1.314399987460000e-01, -5.011765960271822e-02, 8.045643659481687e-01, -4.362402545799806e-01, 9.993041649608333e-01
76, 1.209499984980000e-01, -4.882176246194649e-02, 8.137524540426391e-01, -4.157311293691092e-01, 9.894341644777308e-01
77, 1.108499988910000e-01, -4.744389832028045e-02, 8.239705577814681e-01, -3.929228620949373e-01, 9.785518553594846e-01
78, 1.011300012470000e-01, -4.598189086448076e-02, 8.353415828142725e-01, -3.675411097895703e-01, 9.664460309921956e-01
79, 9.181000292300000e-02, -4.443785446662953e-02, 8.479316981867180e-01, -3.394381736903617e-01, 9.530603892556504e-01
80, 8.290000259900000e-02, -4.281290825121763e-02, 8.618745754671487e-01, -3.083156797608287e-01, 9.383524344900005e-01
81, 7.440000027400000e-02, -4.110640831710227e-02, 8.772882248966425e-01, -2.739102122842801e-01, 9.221621595293724e-01
82, 6.633000075800000e-02, -3.932189461761811e-02, 8.943860810467671e-01, -2.357453548063235e-01, 9.043182816571523e-01
83, 5.869000032500000e-02, -3.745906676521479e-02, 9.133677811203474e-01, -1.933754885706530e-01, 8.845977231887900e-01
84, 5.149000138000000e-02, -3.551994418589052e-02, 9.345318461708039e-01, -1.461342719401699e-01, 8.626914682062159e-01
113, 4.473999887700000e-02, 2.392178386085853e-02, 6.845392172581031e-01, -7.041535329060199e-01, 1.128394892368657e+00
114, 5.149000138000000e-02, 2.525776809522048e-02, 6.832757352972688e-01, -7.069738051400249e-01, 1.130174288626234e+00
115, 5.869000032500000e-02, 2.655626971471638e-02, 6.831464174641331e-01, -7.072624610175602e-01, 1.130608466242810e+00
116, 6.633000075800000e-02, 2.781801708387786e-02, 6.840164620871921e-01, -7.053203971268033e-01, 1.129774842946156e+00
117, 7.440000027400000e-02, 2.904367532118503e-02, 6.855802823825846e-01, -7.018297268245879e-01, 1.128054627927629e+00
118, 8.290000259900000e-02, 3.023515854216294e-02, 6.873990545608422e-01, -6.977699674981201e-01, 1.126060440435388e+00
119, 9.181000292300000e-02, 3.139136691074814e-02, 6.890640304304371e-01, -6.940535035034887e-01, 1.124256659045776e+00
120, 1.011300012470000e-01, 3.251380890635223e-02, 6.905865261044382e-01, -6.906550756597363e-01, 1.122656802935422e+00
121, 1.108499988910000e-01, 3.360245408870526e-02, 6.923753920706652e-01, -6.866620712708366e-01, 1.120788183473560e+00
122, 1.209499984980000e-01, 3.465617175954704e-02, 6.947829424023473e-01, -6.812880749947605e-01, 1.118174855991009e+00
123, 1.314399987460000e-01, 3.567681971736662e-02, 6.976453215390704e-01, -6.748988358502892e-01, 1.114940542774522e+00
124, 1.422899961470000e-01, 3.666211050021350e-02, 7.004285146332999e-01, -6.686863512649556e-01, 1.111785675169930e+00
125, 1.534900069240000e-01, 3.761178140406896e-02, 7.028326034130440e-01, -6.633200816673126e-01, 1.109082490823759e+00
126, 1.650400012730000e-01, 3.852619576564834e-02, 7.049650278409435e-01, -6.585602057121797e-01, 1.106728404586887e+00
127, 1.769299954180000e-01, 3.940466878724672e-02, 7.070252092365054e-01, -6.539615865256577e-01, 1.104456166250577e+00
128, 1.891400069000000e-01, 4.024573355353368e-02, 7.091390687081164e-01, -6.492431502050974e-01, 1.102136136169771e+00
129, 2.016600072380000e-01, 4.104860182229560e-02, 7.114050069862172e-01, -6.441852522629080e-01, 1.099632196971293e+00
130, 2.144699990750000e-01, 4.181177446661202e-02, 7.138874271157029e-01, -6.386441359024490e-01, 1.096890222715604e+00
131, 2.275699973110000e-01, 4.253484378395174e-02, 7.165729361083902e-01, -6.326496961866289e-01, 1.093908237617382e+00
132, 2.409400045870000e-01, 4.321610213370447e-02, 7.193632519570734e-01, -6.264213125958183e-01, 1.090815692049897e+00
133, 2.545700073240000e-01, 4.385430210987858e-02, 7.221355773480304e-01, -6.202330862767180e-01, 1.087737452589084e+00
134, 2.684499919410000e-01, 4.444803668901676e-02, 7.248278614687828e-01, -6.142235235071813e-01, 1.084762284190911e+00
135, 2.825500071050000e-01, 4.499500229663336e-02, 7.274120710154039e-01, -6.084551986263305e-01, 1.081907787930243e+00
136, 2.968699932100000e-01, 4.549402681710776e-02, 7.298712171197638e-01, -6.029660332148130e-01, 1.079203942389952e+00
137, 3.113999962810000e-01, 4.594332674282715e-02, 7.321572942615850e-01, -5.978631824518191e-01, 1.076698453717528e+00
138, 3.261100053790000e-01, 4.634044859836895e-02, 7.342782333848276e-01, -5.931289433374385e-01, 1.074391034401044e+00
139, 3.409900069240000e-01, 4.668351138619561e-02, 7.363838057227994e-01, -5.884290050830371e-01, 1.072111319165970e+00
140, 3.560400009160000e-01, 4.697064747841079e-02, 7.387436609307375e-01, -5.831614711367467e-01, 1.069575251879396e+00
141, 3.712300062180000e-01, 4.719928637023110e-02, 7.415755752708504e-01, -5.768402337704233e-01, 1.066503693359092e+00
142, 3.865399956700000e-01, 4.736713104659959e-02, 7.449416753841430e-01, -5.693266174461094e-01, 1.062837563350094e+00
143, 4.019699990750000e-01, 4.747202301449324e-02, 7.487908990825550e-01, -5.607346002621539e-01, 1.058635321208832e+00
144, 4.174999892710000e-01, 4.751152051598929e-02, 7.531160961932526e-01, -5.510801424257755e-01, 1.053915177694194e+00
145, 4.331099987030000e-01, 4.748326866390224e-02, 7.579848627912616e-01, -5.402123598409339e-01, 1.048612018400869e+00
146, 4.487800002100000e-01, 4.738503201187418e-02, 7.634402154573413e-01, -5.280352333541489e-01, 1.042669237758765e+00
147, 4.645099937920000e-01, 4.721446907132310e-02, 7.694440762304968e-01, -5.146337584140697e-01, 1.036156916384735e+00
148, 4.802699983120000e-01, 4.696959475859807e-02, 7.758151287350108e-01, -5.004126590736366e-01, 1.029231011294024e+00
85, 4.473999887700000e-02, -3.350704969252085e-02, 9.583148775951184e-01, -9.304714822518224e-02, 8.381256206158142e-01
86, 3.844000026600000e-02, -3.142007328216872e-02, 9.851032011457338e-01, -3.325178315684420e-02, 8.104578482614706e-01
87, 3.260000050100000e-02, -2.926185987113799e-02, 1.015434103645087e+00, 3.445112420778377e-02, 7.791872998775534e-01
88, 2.723000012300000e-02, -2.703609886292873e-02, 1.050071808005201e+00, 1.117674285830373e-01, 7.434718882511091e-01
89, 2.232000045500000e-02, -2.473775617838271e-02, 1.089611394553756e+00, 2.000254342717773e-01, 7.024373211212330e-01
90, 1.789999939500000e-02, -2.238083088947630e-02, 1.134884517670515e+00, 3.010815126573989e-01, 6.550414624797267e-01
91, 1.394999958600000e-02, -1.995450117229620e-02, 1.186690897434814e+00, 4.167207532027109e-01, 5.998754989954451e-01
92, 1.049000024800000e-02, -1.747003136137146e-02, 1.245066076988749e+00, 5.470224932784584e-01, 5.353409820174527e-01
93, 7.519999985000000e-03, -1.492832809562533e-02, 1.309375394072306e+00, 6.905700760542547e-01, 4.598685422337089e-01
94, 5.040000193000000e-03, -1.232957231095288e-02, 1.377180931869700e+00, 8.419217229234368e-01, 3.712584127624812e-01
95, 3.049999941000000e-03, -9.672231722890508e-03, 1.443416230600776e+00, 9.897683718767313e-01, 2.683073017919291e-01
96, 1.560000004000000e-03, -6.971543433304692e-03, 1.495269103378924e+00, 1.105511391470813e+00, 1.524010240959817e-01
97, 5.600000150000000e-04, -4.206360385856998e-03, 1.523657581894910e+00, 1.168878531015424e+00, 2.331650075509598e-02
98, 5.999999800000000e-05, -1.384039761438855e-03, 1.507272987181611e+00, 1.132305774958953e+00, 1.112511582638848e-01
99, 0.000000000000000e+00, 0.000000000000000e+00, 1.462215415596033e+00, 1.031730838384003e+00, 2.150466977217896e-01
100, 5.999999800000000e-05, 1.263749607665463e-03, 1.420651169503244e+00, 9.389535033554554e-01, 3.139400386683089e-01
101, 5.600000150000000e-04, 3.625103198305002e-03, 1.321089604114526e+00, 7.167178663270672e-01, 4.616894684295323e-01
102, 1.560000004000000e-03, 5.788959997181362e-03, 1.149936349106846e+00, 3.346793506849250e-01, 6.264772620792853e-01
103, 3.049999941000000e-03, 7.807064546319803e-03, 1.012995299057607e+00, 2.900736396787374e-02, 7.607377340882919e-01
104, 5.040000193000000e-03, 9.724434097357067e-03, 9.079477056150992e-01, -2.054738713948679e-01, 8.672298970590376e-01
105, 7.519999985000000e-03, 1.154881795530179e-02, 8.317584015848483e-01, -3.755392821766780e-01, 9.493277670232652e-01
106, 1.049000024800000e-02, 1.329519984567238e-02, 7.800389979555959e-01, -4.909843795634019e-01, 1.008892808561754e+00
107, 1.394999958600000e-02, 1.497409252431948e-02, 7.460692805915012e-01, -5.668096415368276e-01, 1.050162368845309e+00
108, 1.789999939500000e-02, 1.659341060699109e-02, 7.233631953005046e-01, -6.174928676328022e-01, 1.078500330639870e+00
109, 2.232000045500000e-02, 1.815277065166647e-02, 7.080818995831037e-01, -6.516029027162863e-01, 1.097891589345616e+00
110, 2.723000012300000e-02, 1.966531857265505e-02, 6.978373027808646e-01, -6.744703062927129e-01, 1.111093554929740e+00
111, 3.260000050100000e-02, 2.112692969441555e-02, 6.910876272624715e-01, -6.895365462891261e-01, 1.119749265602145e+00
112, 3.844000026600000e-02, 2.254529885212428e-02, 6.869787120403279e-01, -6.987082320528395e-01, 1.125123629321553e+00
199, 1.000000000000000e+00, 0.000000000000000e+00, 1.279255383278937e+00, 6.233379091047707e-01, 4.554094981252947e-01
0, 9.997500181200000e-01, -3.633242790586035e-05, 1.290548799448171e+00, 6.485464273396665e-01, 4.935183892749154e-01
1, 9.990000128750000e-01, -1.454723337387555e-04, 1.264206151727246e+00, 5.897458743911738e-01, 5.210705261001868e-01
2, 9.977599978450000e-01, -3.275074399036605e-04, 1.248338527697289e+00, 5.543270707528766e-01, 5.398363407465266e-01
3, 9.960200190539999e-01, -5.899274994245929e-04, 1.238435889290592e+00, 5.322229671665005e-01, 5.517324909752104e-01
4, 9.937800168990000e-01, -9.470960950467624e-04, 1.231531446653931e+00, 5.168112648525243e-01, 5.596469987716535e-01
5, 9.910500049590000e-01, -1.422099965274736e-03, 1.224775995404163e+00, 5.017321325985787e-01, 5.674058518760284e-01
6, 9.878399968150000e-01, -2.045526004825423e-03, 1.214691658609002e+00, 4.792224522522355e-01, 5.780706980259436e-01
7, 9.841300249100000e-01, -2.853692288902750e-03, 1.198776298198309e+00, 4.436970941926535e-01, 5.946576251324045e-01
183, 9.375399947170000e-01, 5.284870944260792e-03, 1.144300319732052e+00, 3.220989279733315e-01, 6.495144889306634e-01
184, 9.449599981310000e-01, 4.427229488097915e-03, 1.155523894312675e+00, 3.471515498050783e-01, 6.379775988696323e-01
185, 9.519400000570000e-01, 3.731991276835388e-03, 1.162390743117007e+00, 3.624793373147480e-01, 6.311788721962082e-01
186, 9.584699869160000e-01, 3.205272457602185e-03, 1.163331086284169e+00, 3.645783175985911e-01, 6.306937931557897e-01
187, 9.645400047300000e-01, 2.826896515915911e-03, 1.157881275626407e+00, 3.524135616660870e-01, 6.368256745066320e-01
