"PointID"	"x"	"y"	"Conservative_1"	"Conservative_2"	"Conservative_3"	"Conservative_4"	"Pressure"	"Temperature"	"C<sub>p</sub>"	"Mach"
0	9.997500181200000e-01	-3.633242219078640e-05	1.199827842196009e+00	7.196143572549685e-01	1.010143369582985e-01	3.446404985887126e+00	1.290541246566211e+00	1.075605350351074e+00	6.485295682281504e-01	4.935459205106253e-01	
1	9.990000128750000e-01	-1.454719723828848e-04	1.181590364043849e+00	7.459927365073663e-01	1.066715506717023e-01	3.400761605340006e+00	1.264182669593684e+00	1.069899271408387e+00	5.896934589144722e-01	5.211075979329501e-01	
2	9.977599978450000e-01	-3.275034664112965e-04	1.171155476404308e+00	7.640975591601784e-01	1.128645598526956e-01	3.375447558530029e+00	1.248299554664289e+00	1.065870057233416e+00	5.542400773756446e-01	5.398895387378554e-01	
3	9.960200190539999e-01	-5.899059547824427e-04	1.164703184372995e+00	7.749249342168426e-01	1.197547966566949e-01	3.359895606645007e+00	1.238377718238940e+00	1.063256059444542e+00	5.320931210690629e-01	5.518058839654800e-01	
4	9.937800168990000e-01	-9.470177627552372e-04	1.160116688741097e+00	7.808372196245567e-01	1.301560338558719e-01	3.348712515329047e+00	1.231453225745784e+00	1.061490829066599e+00	5.166366646111250e-01	5.597418652625648e-01	
5	9.910500049590000e-01	-1.421881509677155e-03	1.155639006527024e+00	7.856304695950143e-01	1.447509252959945e-01	3.337808531539991e+00	1.224679223465964e+00	1.059742027180635e+00	5.015161238079554e-01	5.675200962606499e-01	
6	9.878399968150000e-01	-2.045023180081170e-03	1.148744520640645e+00	7.914533452370639e-01	1.631932879037960e-01	3.320687722275950e+00	1.214580453563679e+00	1.057311205181043e+00	4.789742267046417e-01	5.781996534545485e-01	
7	9.841300249100000e-01	-2.852689288452059e-03	1.137820989269585e+00	8.011302870124360e-01	1.835718046180195e-01	3.293485021223123e+00	1.198656816858959e+00	1.053466958478616e+00	4.434303947744618e-01	5.947944957941327e-01	
8	9.799500107769999e-01	-3.857141444959224e-03	1.121639288219841e+00	8.161434140250051e-01	2.027405925601349e-01	3.253111555183940e+00	1.175144577691140e+00	1.047702759731445e+00	3.909477180605814e-01	6.190602995685596e-01	
9	9.752799868580000e-01	-5.055506431483520e-03	1.100290452782825e+00	8.365445821296840e-01	2.167815278139968e-01	3.199797598928610e+00	1.144172870584317e+00	1.039882576178413e+00	3.218144432685638e-01	6.509369912986585e-01	
10	9.701499938960000e-01	-6.400986098347359e-03	1.075014715751269e+00	8.606177448533338e-01	2.225166103167783e-01	3.136563493682270e+00	1.107617820172704e+00	1.030328054066358e+00	2.402183485997858e-01	6.884872108821659e-01	
11	9.645400047300000e-01	-7.835150167683299e-03	1.048424565203336e+00	8.850372061120662e-01	2.183723984592255e-01	3.069801479852621e+00	1.069401345408452e+00	1.020007906053830e+00	1.549137174295811e-01	7.275982083061140e-01	
12	9.584699869160000e-01	-9.282734982080158e-03	1.024886450643858e+00	9.061647336329093e-01	2.053185136478139e-01	3.010528124832478e+00	1.035745715827391e+00	1.010595578833842e+00	7.978954425756982e-02	7.621666528603569e-01	
13	9.519400000570000e-01	-1.068845075263789e-02	1.008384109626303e+00	9.216238190770447e-01	1.871491991034660e-01	2.968953301880741e+00	1.012168940058796e+00	1.003753361835398e+00	2.716281263124178e-02	7.867279917967377e-01	
14	9.449599981310000e-01	-1.202439891939076e-02	1.000040128328471e+00	9.308272941836014e-01	1.685861767675315e-01	2.947960708658924e+00	1.000219314909761e+00	1.000179179391120e+00	4.895422092872359e-04	7.993875501059587e-01	
15	9.375399947170000e-01	-1.329500488913065e-02	9.980068238896432e-01	9.347711098051227e-01	1.532939281818181e-01	2.942835795100993e+00	9.973166986284214e-01	9.993084964504231e-01	-5.989511990130742e-03	8.024547661176407e-01	
16	9.296900033950000e-01	-1.452759228245954e-02	9.991369789811166e-01	9.355095832973278e-01	1.429082652657117e-01	2.945635199290777e+00	9.989791711575871e-01	9.998420558673644e-01	-2.278635808957470e-03	8.005759189659102e-01	
17	9.214000105860000e-01	-1.576044911541625e-02	1.000598092488367e+00	9.351357900457469e-01	1.371878237415873e-01	2.949239982742884e+00	1.001142895402172e+00	1.000544477266043e+00	2.551105808420499e-03	7.980987746382809e-01	
18	9.126999974250000e-01	-1.702084991533944e-02	1.000642454682877e+00	9.351079731930185e-01	1.347811918593911e-01	2.949258559169460e+00	1.001299461886835e+00	1.000656585377608e+00	2.900584568828488e-03	7.977030272116534e-01	
19	9.035800099370001e-01	-1.832985025745602e-02	9.986703022353670e-01	9.360375853094292e-01	1.340565717509290e-01	2.944169663469823e+00	9.986022571406161e-01	9.999318643053684e-01	-3.119961739696154e-03	8.002594361698329e-01	
20	8.940600156780000e-01	-1.969112929182815e-02	9.949017415764650e-01	9.379784307697854e-01	1.337181662406724e-01	2.934535995874320e+00	9.933575658690252e-01	9.984479113434933e-01	-1.482686189949724e-02	8.054801594818369e-01	
21	8.841500282290000e-01	-2.110010400752807e-02	9.898932805749240e-01	9.406298600202151e-01	1.330019824447927e-01	2.921755497974765e+00	9.863645515655591e-01	9.964352429917342e-01	-3.043626882687693e-02	8.125319182181929e-01	
22	8.738499879840000e-01	-2.254858628744754e-02	9.842297084015651e-01	9.436162138665212e-01	1.316217298388733e-01	2.907297313178375e+00	9.784628311118325e-01	9.941407201586122e-01	-4.807403769680241e-02	8.205316207535416e-01	
23	8.631799817090000e-01	-2.402448474103289e-02	9.783824224658174e-01	9.466469795828035e-01	1.296042160272586e-01	2.892354855071571e+00	9.703200780616920e-01	9.917595163005835e-01	-6.624982575515188e-02	8.287904473505232e-01	
24	8.521599769590000e-01	-2.551714039878074e-02	9.726292478286904e-01	9.495349515889837e-01	1.271169736837806e-01	2.877629833640184e+00	9.623314417915528e-01	9.894124034824922e-01	-8.408160314385528e-02	8.368896102189826e-01	
25	8.407700061800000e-01	-2.702338316517481e-02	9.670817028472077e-01	9.522139413713205e-01	1.243591364099367e-01	2.863409086586937e+00	9.546503614468882e-01	9.871455107011953e-01	-1.012268717703388e-01	8.446742865287356e-01	
26	8.290500044819999e-01	-2.853395910987964e-02	9.617318918422290e-01	9.546785872729465e-01	1.214642826843771e-01	2.849672719064911e+00	9.472655595904323e-01	9.849580404117766e-01	-1.177108044856421e-01	8.521523177417504e-01	
27	8.170099854470000e-01	-3.004501199865435e-02	9.565338486306387e-01	9.569705141066760e-01	1.185217462224829e-01	2.836310653528409e+00	9.401056382694077e-01	9.828252702350794e-01	-1.336927717200720e-01	8.594123438662431e-01	
28	8.046399950980000e-01	-3.155570778139766e-02	9.514234220676183e-01	9.591000914329709e-01	1.155576623477941e-01	2.823153592997034e+00	9.330866243723756e-01	9.807269851992994e-01	-1.493602134545189e-01	8.665260551107608e-01	
29	7.919700145720000e-01	-3.306038737857741e-02	9.463693619953391e-01	9.610994366489497e-01	1.125601044478440e-01	2.810125707085201e+00	9.261609719912276e-01	9.786464029631057e-01	-1.648192589481527e-01	8.735523056432576e-01	
30	7.790099978450000e-01	-3.455578550828054e-02	9.413557229438155e-01	9.630035264815338e-01	1.095180445541224e-01	2.797193454869022e+00	9.192992689764096e-01	9.765694801340021e-01	-1.801355603205144e-01	8.805397843731583e-01	
31	7.657799720760000e-01	-3.603728525634001e-02	9.363389340064455e-01	9.648046258964376e-01	1.064112104890724e-01	2.784237225885251e+00	9.124491068774878e-01	9.744859192955518e-01	-1.954261007198933e-01	8.875238939835378e-01	
32	7.522799968720000e-01	-3.750233011994625e-02	9.312849578332494e-01	9.665169507305862e-01	1.032282682919495e-01	2.771169970074823e+00	9.055631556309764e-01	9.723803096077942e-01	-2.107965276094276e-01	8.945565652706318e-01	
33	7.385200262070000e-01	-3.894707583438131e-02	9.262101032610615e-01	9.681384098558050e-01	9.996190559648187e-02	2.758034381258621e+00	8.986631089997020e-01	9.702583742453574e-01	-2.261984174113794e-01	9.016187868876139e-01	
34	7.245299816130000e-01	-4.036565469951184e-02	9.211652132555839e-01	9.696564209327201e-01	9.659818317066331e-02	2.744961546981071e+00	8.918186086166915e-01	9.681418661749337e-01	-2.414763200520279e-01	9.086387470195777e-01	
35	7.103199958800001e-01	-4.175444153546451e-02	9.161982668469790e-01	9.710588839284224e-01	9.315196118140863e-02	2.732075452316990e+00	8.850950916205866e-01	9.660519165426592e-01	-2.564841704897620e-01	9.155476424957792e-01	
36	6.958900094030001e-01	-4.311087642340022e-02	9.113278575127901e-01	9.723604266704147e-01	8.961961987829539e-02	2.719429125930446e+00	8.785129367794320e-01	9.639921895694959e-01	-2.711764804030536e-01	9.223349790342665e-01	
37	6.812700033190000e-01	-4.442976430063162e-02	9.065581394697882e-01	9.735420394362702e-01	8.601953845142819e-02	2.707027551002483e+00	8.720835619053295e-01	9.619720169468431e-01	-2.855277636041751e-01	9.289717317116190e-01	
38	6.664699912070000e-01	-4.570810398847377e-02	9.019003759557737e-01	9.746139409953579e-01	8.235804086614579e-02	2.694903041437428e+00	8.658191205338170e-01	9.599941896202007e-01	-2.995108916655870e-01	9.354505310560004e-01	
39	6.514999866490000e-01	-4.694311721418278e-02	8.973706799651681e-01	9.755913837138817e-01	7.864692094649076e-02	2.683102453266890e+00	8.597363711074758e-01	9.580615795702698e-01	-3.130884573493844e-01	9.417637352783788e-01	
40	6.363800168040000e-01	-4.813148882572284e-02	8.929686820647404e-01	9.764553410735699e-01	7.489934033046262e-02	2.671618281932949e+00	8.538413596516325e-01	9.561828727042961e-01	-3.262469650633202e-01	9.478847734489763e-01	
41	6.211299896240000e-01	-4.927029992560907e-02	8.887046630142029e-01	9.772406616643731e-01	7.112193998539802e-02	2.660487821761873e+00	8.481373805882267e-01	9.543523466070442e-01	-3.389790611869939e-01	9.538340123089452e-01	
42	6.057599782940000e-01	-5.035768714332028e-02	8.845609400089354e-01	9.779210243281397e-01	6.733316900776387e-02	2.649655515226724e+00	8.426101792349886e-01	9.525744820096591e-01	-3.513165642076148e-01	9.595984815937211e-01	
43	5.902799963950000e-01	-5.139200120648291e-02	8.805537757577359e-01	9.785333811350737e-01	6.353435926449319e-02	2.639175145087242e+00	8.372701784874284e-01	9.508450267752689e-01	-3.632362087334189e-01	9.651934590204903e-01	
44	5.747100114820000e-01	-5.237117551879410e-02	8.766979583319151e-01	9.790451063324481e-01	5.973303325891066e-02	2.629074664268748e+00	8.321478088936795e-01	9.491841528603526e-01	-3.746700694337513e-01	9.705552385728914e-01	
45	5.590599775310000e-01	-5.329403456422755e-02	8.730451618505251e-01	9.794968735290037e-01	5.592039752249560e-02	2.619502284471906e+00	8.272988691815979e-01	9.476014590448424e-01	-3.854935955767904e-01	9.756545615729589e-01	
46	5.433599948880000e-01	-5.415846660651737e-02	8.695855374413476e-01	9.798659366788521e-01	5.210017519173182e-02	2.610423709798747e+00	8.227187719052185e-01	9.461044790670867e-01	-3.957170269972802e-01	9.804688974421006e-01	
47	5.276100039480000e-01	-5.496425946855443e-02	8.662560648277885e-01	9.802041645583256e-01	4.828423924284721e-02	2.601688667691779e+00	8.183089842127294e-01	9.446502223051209e-01	-4.055603030965863e-01	9.851378108015434e-01	
48	5.118399858470000e-01	-5.570974947367707e-02	8.629105086275960e-01	9.804797113551059e-01	4.449597599844108e-02	2.592901207221132e+00	8.138881164894977e-01	9.431894829788722e-01	-4.154283114073713e-01	9.898197572941667e-01	
49	4.960500001910000e-01	-5.639485506554780e-02	8.595394593980467e-01	9.807317504569021e-01	4.073946930980098e-02	2.584049204460101e+00	8.094311444971868e-01	9.417032989550572e-01	-4.253769096044938e-01	9.945754402321861e-01	
50	4.802699983120000e-01	-5.701821349748524e-02	8.563439585961461e-01	9.809013939490594e-01	3.697816725584524e-02	2.575642144898675e+00	8.052222979949463e-01	9.403024216052084e-01	-4.347716562612807e-01	9.990510905943905e-01	
51	4.645099937920000e-01	-5.757940581960240e-02	8.536735670728011e-01	9.810158367448401e-01	3.315526380189530e-02	2.568607116204265e+00	8.017145633006508e-01	9.391348101004058e-01	-4.426014212039044e-01	1.002776360239896e+00	
52	4.487800002100000e-01	-5.807794411203855e-02	8.516341925177848e-01	9.810602527034693e-01	2.924882696715254e-02	2.563215876520341e+00	7.990543083117764e-01	9.382600127285164e-01	-4.485394903754992e-01	1.005564409318523e+00	
53	4.331099987030000e-01	-5.851272798154833e-02	8.499261060493971e-01	9.810919796185424e-01	2.524721149839880e-02	2.558697609931973e+00	7.968290123277330e-01	9.375273999189550e-01	-4.535066689113104e-01	1.007897359003971e+00	
54	4.174999892710000e-01	-5.888350526191986e-02	8.478750308732262e-01	9.811298686488596e-01	2.118464374311516e-02	2.553285921805067e+00	7.941430113361179e-01	9.366274302455049e-01	-4.595022068390227e-01	1.010760849312379e+00	
55	4.019699990750000e-01	-5.918936676504259e-02	8.447446121238263e-01	9.812039041858237e-01	1.710493032379088e-02	2.545057560298473e+00	7.900124120576889e-01	9.352085834219984e-01	-4.687222945140873e-01	1.015270008664383e+00	
56	3.865399956700000e-01	-5.942940967970763e-02	8.400685033239184e-01	9.812380388098766e-01	1.305013235432935e-02	2.532768020608993e+00	7.838405732128582e-01	9.330674464182603e-01	-4.824987205070130e-01	1.022062708989536e+00	
57	3.712300062180000e-01	-5.960273079365760e-02	8.340321634130060e-01	9.811530470688000e-01	9.001882435963341e-03	2.516886822965803e+00	7.758901707452963e-01	9.302880689519427e-01	-5.002451545863922e-01	1.030859535608598e+00	
58	3.560400009160000e-01	-5.970852598946011e-02	8.275290813071001e-01	9.808242234607382e-01	4.850730360654962e-03	2.499722613454023e+00	7.673800717047374e-01	9.273149295160046e-01	-5.192409113733539e-01	1.040244876732855e+00	
59	3.409900069240000e-01	-5.974563534251544e-02	8.217835204355529e-01	9.803348970521090e-01	4.678885752855040e-04	2.484510313492216e+00	7.599087733001396e-01	9.247067559804328e-01	-5.359179167407598e-01	1.048458031594821e+00	
60	3.261100053790000e-01	-5.971295620526598e-02	8.176342000006572e-01	9.798433659753109e-01	-4.179304629496797e-03	2.473491673820730e+00	7.545458062859661e-01	9.228403194061107e-01	-5.478888252545400e-01	1.054324406087138e+00	
61	3.113999962810000e-01	-5.960932930750840e-02	8.152484536207720e-01	9.794429445478385e-01	-9.070024059633431e-03	2.467128616992641e+00	7.514898848830091e-01	9.217924689650240e-01	-5.547100783861405e-01	1.057613981294924e+00	
62	2.968699932100000e-01	-5.943340178431080e-02	8.143529371857375e-01	9.792028115236958e-01	-1.419466331876119e-02	2.464726524086919e+00	7.503564595703203e-01	9.214143221039052e-01	-5.572400456019637e-01	1.058800441443508e+00	
63	2.825500071050000e-01	-5.918408730048699e-02	8.145261170500165e-01	9.790577281198315e-01	-1.954304720651935e-02	2.465160941902466e+00	7.506057596307516e-01	9.215244838916078e-01	-5.566835722527866e-01	1.058454838559819e+00	
64	2.684499919410000e-01	-5.886011203087668e-02	8.154688239640077e-01	9.790086473801843e-01	-2.515335837908958e-02	2.467652056777050e+00	7.518364720309817e-01	9.219683817908478e-01	-5.539364463594159e-01	1.057061921723102e+00	
65	2.545700073240000e-01	-5.845980837887487e-02	8.169885147710393e-01	9.789662276159433e-01	-3.105327384826035e-02	2.471668539339848e+00	7.538197616295308e-01	9.226809777623235e-01	-5.495094606483688e-01	1.054824815431902e+00	
66	2.409400045870000e-01	-5.798233948160739e-02	8.190387979629861e-01	9.789532848067402e-01	-3.729850663140982e-02	2.477100483977937e+00	7.564823793294349e-01	9.236221546657696e-01	-5.435661175682258e-01	1.051868126813395e+00	
67	2.275699973110000e-01	-5.742644476542277e-02	8.215377880422129e-01	9.788984494610851e-01	-4.390571940405526e-02	2.483713103635913e+00	7.597358265085564e-01	9.247728315931333e-01	-5.363039586862580e-01	1.048250183852623e+00	
68	2.144699990750000e-01	-5.679086187543046e-02	8.244000256008018e-01	9.788151147877511e-01	-5.090837075704278e-02	2.491291757760115e+00	7.634573481022108e-01	9.260763275035352e-01	-5.279969908432796e-01	1.044147528179399e+00	
69	2.016600072380000e-01	-5.607494232887771e-02	8.275118512953713e-01	9.786363073073522e-01	-5.832598783679583e-02	2.499520602086471e+00	7.675140588641979e-01	9.274961532729062e-01	-5.189418328924155e-01	1.039673515493865e+00	
70	1.891400069000000e-01	-5.527703853618778e-02	8.308882307256280e-01	9.783752079808721e-01	-6.620455582926346e-02	2.508448631285968e+00	7.719160485943717e-01	9.290251324419956e-01	-5.091159629589918e-01	1.034849316119717e+00	
71	1.769299954180000e-01	-5.439677038590122e-02	8.346867887488846e-01	9.779773576548830e-01	-7.460708912293719e-02	2.518477510700492e+00	7.768839583318645e-01	9.307490771434627e-01	-4.980268787235167e-01	1.029402005261162e+00	
72	1.650400012730000e-01	-5.343333867220350e-02	8.391520262250559e-01	9.774438924730237e-01	-8.360357087633928e-02	2.530258159890761e+00	7.827321631498376e-01	9.327656237344453e-01	-4.849728501119696e-01	1.023019104089006e+00	
73	1.534900069240000e-01	-5.238701359994579e-02	8.443549801122937e-01	9.766945455675090e-01	-9.322643297950599e-02	2.543961148292553e+00	7.895705490966105e-01	9.351168260908498e-01	-4.697085957664944e-01	1.015561398810659e+00	
74	1.422899961470000e-01	-5.125755883989115e-02	8.502235549287166e-01	9.757167346545473e-01	-1.035183365928612e-01	2.559405902918533e+00	7.972950546067044e-01	9.377475488473739e-01	-4.524663959671778e-01	1.007196497021294e+00	
75	1.314399987460000e-01	-5.004375871022686e-02	8.566123084975676e-01	9.743706651459945e-01	-1.145300690999720e-01	2.576178503105158e+00	8.057453915228541e-01	9.406185079643204e-01	-4.336040367793436e-01	9.980418198429138e-01	
76	1.209499984980000e-01	-4.874541247355464e-02	8.635833160355937e-01	9.726763715220295e-01	-1.263716574704014e-01	2.594467301890446e+00	8.149782810650835e-01	9.437170287244101e-01	-4.129949083368671e-01	9.881297623059919e-01	
77	1.108499988910000e-01	-4.736536377658732e-02	8.713118792014565e-01	9.705388353249652e-01	-1.391086523051140e-01	2.614723693635147e+00	8.252344236285331e-01	9.471171498141946e-01	-3.901017329720244e-01	9.772130451702210e-01	
78	1.011300012470000e-01	-4.590148260682266e-02	8.798550367279147e-01	9.677289645965936e-01	-1.528165834937326e-01	2.637050621188839e+00	8.366360665267731e-01	9.508794421841718e-01	-3.646516372170243e-01	9.650822406080782e-01	
79	9.181000292300000e-02	-4.435593653057218e-02	8.892517938827195e-01	9.640915370838238e-01	-1.676182315464924e-01	2.661535887892134e+00	8.492494000315083e-01	9.550156725840839e-01	-3.364968749296690e-01	9.516798573918142e-01	
80	8.290000259900000e-02	-4.272989529318447e-02	8.996136454379690e-01	9.595369412706242e-01	-1.836312092056007e-01	2.688486494798981e+00	8.632076068713097e-01	9.595314735928276e-01	-3.053401632336837e-01	9.369636273696322e-01	
81	7.440000027400000e-02	-4.102276414982372e-02	9.109989498714329e-01	9.537749578692292e-01	-2.009668674304976e-01	2.718015794890064e+00	8.786277345894125e-01	9.644662430328941e-01	-2.709202352914901e-01	9.207747197788032e-01	
82	6.633000075800000e-02	-3.923813261180124e-02	9.235579280031442e-01	9.465431426210429e-01	-2.197796064996567e-01	2.750504959442441e+00	8.957216869497590e-01	9.698597779204053e-01	-2.327640916300023e-01	9.029426623459403e-01	
83	5.869000032500000e-02	-3.737574660895136e-02	9.374075843680250e-01	9.374271472004122e-01	-2.402034889440363e-01	2.786217707515779e+00	9.146876813318449e-01	9.757630475632464e-01	-1.904292827414177e-01	8.832459625655268e-01	
84	5.149000138000000e-02	-3.543766968819161e-02	9.527364480148739e-01	9.259143995554889e-01	-2.623582370178559e-01	2.825602042848032e+00	9.358220307549929e-01	9.822464887376527e-01	-1.432543956361765e-01	8.613773856854854e-01	
85	4.473999887700000e-02	-3.342646420114610e-02	9.698197336274286e-01	9.112796395177390e-01	-2.863619974768994e-01	2.869310641735074e+00	9.595586124282123e-01	9.894195582504428e-01	-9.027095440131189e-02	8.368649836273586e-01	
86	3.844000026600000e-02	-3.134185776756094e-02	9.888844381016622e-01	8.925960023614633e-01	-3.122869657568998e-01	2.917855457129070e+00	9.862816620550847e-01	9.973679674325003e-01	-3.062129005561447e-02	8.092680480568011e-01	
