"PointID"	"x"	"y"	"Conservative_1"	"Conservative_2"	"Conservative_3"	"Conservative_4"	"Pressure"	"Temperature"	"Pressure_Coefficient"	"Mach"
0	9.997500181200000e-01	-3.633608776185482e-05	1.179577572385169e+00	6.351014692278250e-01	9.289934962936162e-02	3.376339233419999e+00	1.280682862147438e+00	1.085713133353180e+00	6.265242458648179e-01	4.413592083953420e-01	
1	9.990000128750000e-01	-1.457031549977122e-04	1.168260759714566e+00	6.605541042577852e-01	9.484956857348623e-02	3.348978461312943e+00	1.263353582029921e+00	1.081396915478518e+00	5.878428170310744e-01	4.642412330594214e-01	
2	9.977599978450000e-01	-3.300337288513341e-04	1.161935001327500e+00	6.744676255605272e-01	1.024306574238920e-01	3.333903016680014e+00	1.253453693432825e+00	1.078764037575911e+00	5.657448514125565e-01	4.777530433618860e-01	
3	9.960200190539999e-01	-6.035220021201164e-04	1.159397205758000e+00	6.799264440853257e-01	1.127198886782050e-01	3.328056097569979e+00	1.249282316986799e+00	1.077527452009023e+00	5.564337432741040e-01	4.839929004636884e-01	
4	9.937800168990000e-01	-9.959587331705815e-04	1.157771664254663e+00	6.805775006034435e-01	1.295457790569244e-01	3.324166183942373e+00	1.246754124273931e+00	1.076856657289632e+00	5.507904559685961e-01	4.873491220586788e-01	
5	9.910500049590000e-01	-1.556112864926730e-03	1.154772957529358e+00	6.819686263167949e-01	1.542068429636325e-01	3.316963657709933e+00	1.242117571528364e+00	1.075637910837365e+00	5.404410078758127e-01	4.933998396315025e-01	
6	9.878399968150000e-01	-2.346798380094724e-03	1.146721485293133e+00	6.874784569118360e-01	1.858197889040693e-01	3.296961986869237e+00	1.230331647375717e+00	1.072912353308887e+00	5.141331414636543e-01	5.067182335171293e-01	
7	9.841300249100000e-01	-3.435201549878490e-03	1.130866488551294e+00	7.018440311340104e-01	2.210659594248040e-01	3.257469464371001e+00	1.207228435208535e+00	1.067525165375681e+00	4.625634714476237e-01	5.322514486364507e-01	
8	9.799500107769999e-01	-4.842211662023644e-03	1.104055178138829e+00	7.279297685992828e-01	2.547669742384598e-01	3.190423060332333e+00	1.168423167422562e+00	1.058301424202586e+00	3.759445701396474e-01	5.738806703860432e-01	
9	9.752799868580000e-01	-6.543362222676533e-03	1.065214447200117e+00	7.657236686900009e-01	2.789544266185402e-01	3.092999458342724e+00	1.112502205179406e+00	1.044392711818342e+00	2.511209937040303e-01	6.327025043571295e-01	
10	9.701499938960000e-01	-8.424591256442052e-03	1.015243074231180e+00	8.106940262910690e-01	2.827476285987312e-01	2.966738851006183e+00	1.041474943591119e+00	1.025838018525567e+00	9.257799908731877e-02	7.056846649536119e-01	
11	9.645400047300000e-01	-1.033267584759369e-02	9.382221190806803e-01	8.586865655206184e-01	2.634424458544832e-01	2.768648453294507e+00	9.354863434461568e-01	9.970840853366323e-01	-1.440036976648286e-01	8.102750007407505e-01	
12	9.584699869160000e-01	-1.208221747866559e-02	8.184273642475546e-01	9.007766460032209e-01	2.315129028867328e-01	2.458972973579812e+00	7.722089673194555e-01	9.435277961770119e-01	-5.084621265190725e-01	9.887482753814402e-01	
13	9.519400000570000e-01	-1.352466166853726e-02	7.498098960361443e-01	9.264686095421844e-01	1.675673518320394e-01	2.283362321333465e+00	6.769055572865967e-01	9.027695698136891e-01	-7.211929524852752e-01	1.116906561805080e+00	
14	9.449599981310000e-01	-1.457397197547032e-02	7.611303482395109e-01	9.557363229794833e-01	1.101155994944863e-01	2.320119517894983e+00	6.848418000778180e-01	8.997694043626725e-01	-7.034781248262990e-01	1.126193465406953e+00	
15	9.375399947170000e-01	-1.522001208911205e-02	8.089893093188966e-01	9.705272172472338e-01	5.767910520733321e-02	2.448284727279419e+00	7.456272531016828e-01	9.216775110779161e-01	-5.677963100408867e-01	1.057978976458945e+00	
16	9.296900033950000e-01	-1.551355334997682e-02	8.670621400277004e-01	9.708994406370905e-01	1.677909579731458e-02	2.600488620980716e+00	8.226960978024732e-01	9.488317616730335e-01	-3.957676388337651e-01	9.716956262971954e-01	
17	9.214000105860000e-01	-1.553875447395014e-02	9.193589328889453e-01	9.632642138373404e-01	-8.883614816713100e-03	2.736803780292971e+00	8.928510932687154e-01	9.711670396926119e-01	-2.391716668109032e-01	8.986028859037652e-01	
18	9.126999974250000e-01	-1.538767315480906e-02	9.606580378068080e-01	9.495958657954140e-01	-2.190908463008584e-02	2.843240519584692e+00	9.494640592818632e-01	9.883475929161010e-01	-1.128034391029840e-01	8.405560581648714e-01	
19	9.035800099370001e-01	-1.514555863497320e-02	9.929826421395849e-01	9.338636864905137e-01	-2.569002865128760e-02	2.925792237521886e+00	9.945310704676094e-01	1.001559370992315e+00	-1.220743199194340e-02	7.945179835950014e-01	
20	8.940600156780000e-01	-1.488653111211484e-02	1.018299923120858e+00	9.183984990047179e-01	-2.268601836179917e-02	2.990026478013501e+00	1.030249907296743e+00	1.011735230362447e+00	6.752211450165957e-02	7.580370925817279e-01	
21	8.841500282290000e-01	-1.467446879066896e-02	1.038021756258572e+00	9.043488895300968e-01	-1.469382058489702e-02	3.039827441062597e+00	1.058311385616786e+00	1.019546439403492e+00	1.301593428946113e-01	7.293220566301060e-01	
22	8.738499879840000e-01	-1.456591820361837e-02	1.053069969859992e+00	8.922620745800535e-01	-2.983219880641067e-03	3.077680821107027e+00	1.079868603691149e+00	1.025448103733050e+00	1.782781332391712e-01	7.071585096889926e-01	
23	8.631799817090000e-01	-1.461156798086989e-02	1.063956413005354e+00	8.824728084095558e-01	1.143806591369898e-02	3.104959393705942e+00	1.095570036504095e+00	1.029713269371104e+00	2.133259743394978e-01	6.908627871850407e-01	
24	8.521599769590000e-01	-1.485383829208792e-02	1.071059673181408e+00	8.753490885835049e-01	2.764244763208725e-02	3.122711306800818e+00	1.105861852499383e+00	1.032493221609773e+00	2.362987779004077e-01	6.801057224034529e-01	
25	8.407700061800000e-01	-1.532600211999053e-02	1.074656422824311e+00	8.709416061957169e-01	4.470698694170167e-02	3.131652843298086e+00	1.111120458841660e+00	1.033930878039623e+00	2.480367384858480e-01	6.744985940382799e-01	
26	8.290500044819999e-01	-1.604660840522711e-02	1.075078454767672e+00	8.693199848037167e-01	6.176717751560814e-02	3.132669631997670e+00	1.111769807651002e+00	1.034129000279574e+00	2.494861777924144e-01	6.737233868244533e-01	
27	8.170099854470000e-01	-1.702070573573270e-02	1.072606897238675e+00	8.701937216430130e-01	7.806148795517781e-02	3.126438352947447e+00	1.108243474573642e+00	1.033224266436017e+00	2.416148986018800e-01	6.772585015425537e-01	
28	8.046399950980000e-01	-1.824247476844257e-02	1.067664082211225e+00	8.733669953931052e-01	9.294436493080974e-02	3.114051081998471e+00	1.101116449483452e+00	1.031332296205886e+00	2.257063604541349e-01	6.846116235157967e-01	
29	7.919700145720000e-01	-1.969171758874133e-02	1.060622226462440e+00	8.783547708792058e-01	1.060342124986558e-01	3.096405881531994e+00	1.090960249202759e+00	1.028603985456261e+00	2.030362705418723e-01	6.951248177373107e-01	
30	7.790099978450000e-01	-2.134205517506665e-02	1.051845548965219e+00	8.847061703233778e-01	1.170328162020020e-01	3.074389202789724e+00	1.078326283775204e+00	1.025175497330417e+00	1.748354548553654e-01	7.081919498676118e-01	
31	7.657799720760000e-01	-2.316124030792319e-02	1.041681064234729e+00	8.919815921998260e-01	1.258686579689799e-01	3.048847619400017e+00	1.063738177850098e+00	1.021174536403399e+00	1.422727184153979e-01	7.232501796619188e-01	
32	7.522799968720000e-01	-2.511796219212400e-02	1.030381919141474e+00	8.997597167172956e-01	1.325383071173941e-01	3.020375285781179e+00	1.047601111012819e+00	1.016711465478443e+00	1.062524799393280e-01	7.398212748436757e-01	
33	7.385200262070000e-01	-2.717983959714104e-02	1.018205130862178e+00	9.077862271502505e-01	1.371467269250490e-01	2.989617966199521e+00	1.030284269271521e+00	1.011863167885547e+00	6.759881533821714e-02	7.575721224531723e-01	
34	7.245299816130000e-01	-2.931266577016583e-02	1.005352874081522e+00	9.158471713879007e-01	1.398237387557152e-01	2.957080552043424e+00	1.012080887352887e+00	1.006692190816595e+00	2.696626641269527e-02	7.762389386287866e-01	
35	7.103199958800001e-01	-3.148696892638497e-02	9.919156302739066e-01	9.236519589910308e-01	1.407218369888227e-01	2.922943566298909e+00	9.931673808844469e-01	1.001261952702766e+00	-1.525138195435961e-02	7.955701655787161e-01	
36	6.958900094030001e-01	-3.367674029050021e-02	9.780679095577143e-01	9.311915292837578e-01	1.399541879139361e-01	2.887683754172734e+00	9.737558589451963e-01	9.955912564246509e-01	-5.858067199732960e-02	8.154849953243696e-01	
37	6.812700033190000e-01	-3.585316761293467e-02	9.638165227380935e-01	9.381489906940790e-01	1.376409007957937e-01	2.851240391561242e+00	9.539319039681829e-01	9.897442941299355e-01	-1.028305714995916e-01	8.357502472900499e-01	
38	6.664699912070000e-01	-3.799220121283088e-02	9.493655448121207e-01	9.446078074030220e-01	1.338997293540833e-01	2.814191946965094e+00	9.339249183352831e-01	9.837358469967509e-01	-1.474890215730287e-01	8.563174535490643e-01	
39	6.514999866490000e-01	-4.007147806314754e-02	9.347511261271486e-01	9.503751751768432e-01	1.288568108043670e-01	2.776596520929553e+00	9.138339133950810e-01	9.776226931988503e-01	-1.923350147431227e-01	8.770110717665212e-01	
40	6.363800168040000e-01	-4.206919846244615e-02	9.202352646183682e-01	9.554320686179693e-01	1.226447622134489e-01	2.739135122889113e+00	8.939899288772698e-01	9.714797544169507e-01	-2.366296230418085e-01	8.975713656400052e-01	
41	6.211299896240000e-01	-4.396607469795522e-02	9.059878238876300e-01	9.596751408864242e-01	1.153626282288714e-01	2.702225218968683e+00	8.746434058123917e-01	9.654030470953374e-01	-2.798138263116255e-01	9.176962483452679e-01	
42	6.057599782940000e-01	-4.574689554434481e-02	8.920718384949772e-01	9.632225613674759e-01	1.073059295023435e-01	2.666088624911069e+00	8.558442790070737e-01	9.593894147033908e-01	-3.217761629306390e-01	9.374404477124676e-01	
43	5.902799963950000e-01	-4.739953455748088e-02	8.784578051725170e-01	9.659801786689997e-01	9.871288666248916e-02	2.630596611735694e+00	8.375756445995902e-01	9.534614407974917e-01	-3.625543647330576e-01	9.567259670390459e-01	
44	5.747100114820000e-01	-4.891435922222977e-02	8.655537966104665e-01	9.680202884378316e-01	8.986694643295515e-02	2.596866964987178e+00	8.203572761597481e-01	9.477831180133354e-01	-4.009882228577052e-01	9.750690103130063e-01	
45	5.590599775310000e-01	-5.028658453187095e-02	8.545300443618221e-01	9.692889198363634e-01	8.090645531974136e-02	2.567950114238715e+00	8.057561482276117e-01	9.429231348201041e-01	-4.335800262776526e-01	9.906754840139684e-01	
46	5.433599948880000e-01	-5.151363323969897e-02	8.469458121311518e-01	9.700015171552645e-01	7.193622077131653e-02	2.547979171969627e+00	7.957823905102287e-01	9.395906787800490e-01	-4.558428783253824e-01	1.001323537103644e+00	
47	5.276100039480000e-01	-5.259916594949090e-02	8.437763814110566e-01	9.703729522016320e-01	6.318425331784214e-02	2.539563726303389e+00	7.916865036844688e-01	9.382657788554390e-01	-4.649854828471678e-01	1.005548600492966e+00	
48	5.118399858470000e-01	-5.354804092642378e-02	8.449783208513661e-01	9.706032838627200e-01	5.484427008505376e-02	2.542634365056621e+00	7.933607576264410e-01	9.389125591140406e-01	-4.612483088695514e-01	1.003487143085665e+00	
49	4.960500001910000e-01	-5.436999646571352e-02	8.496039805461201e-01	9.706888356737013e-01	4.718078534725163e-02	2.554705732415671e+00	7.995521570833231e-01	9.410880544243403e-01	-4.474282207961539e-01	9.965446257669199e-01	
50	4.802699983120000e-01	-5.507544972872234e-02	8.564251083483994e-01	9.706176747227058e-01	4.031205533217343e-02	2.572552905644564e+00	8.086344120119875e-01	9.441974600341002e-01	-4.271553303303851e-01	9.865920583828752e-01	
51	4.645099937920000e-01	-5.567763797340115e-02	8.643440813927190e-01	9.703024122382784e-01	3.434723301856649e-02	2.593267868114955e+00	8.191841742529732e-01	9.477523961673002e-01	-4.036067538996134e-01	9.751713012264003e-01	
52	4.487800002100000e-01	-5.619070097785818e-02	8.726283814353849e-01	9.697509404221212e-01	2.929119425303093e-02	2.614922344814936e+00	8.302356703551769e-01	9.514195137562727e-01	-3.789382358143373e-01	9.633383525393676e-01	
53	4.331099987030000e-01	-5.662855038738598e-02	8.808493626083492e-01	9.689756288871708e-01	2.516066561610051e-02	2.636387117194098e+00	8.412273771978354e-01	9.550184321037755e-01	-3.544031758976889e-01	9.516728428403556e-01	
54	4.174999892710000e-01	-5.700576087816243e-02	8.888087636567668e-01	9.680036961459835e-01	2.190001315792909e-02	2.657140769074839e+00	8.518973691803490e-01	9.584709377475583e-01	-3.305862295081496e-01	9.404296463958376e-01	
55	4.019699990750000e-01	-5.733551871318802e-02	8.964961893717921e-01	9.668247430448798e-01	1.941905069106513e-02	2.677146742934781e+00	8.622404800794665e-01	9.617893419978397e-01	-3.074989283940480e-01	9.295717032390377e-01	
56	3.865399956700000e-01	-5.762982329797366e-02	9.040159297665459e-01	9.655071526261685e-01	1.756426139474454e-02	2.696699561809241e+00	8.723753704888140e-01	9.649999980797876e-01	-2.848764051588974e-01	9.190170926119088e-01	
57	3.712300062180000e-01	-5.789907764846619e-02	9.112046913504109e-01	9.641748639077642e-01	1.624301752117673e-02	2.715399518302401e+00	8.820570381766012e-01	9.680119588381262e-01	-2.632655397843723e-01	9.090695228339550e-01	
58	3.560400009160000e-01	-5.815211454426714e-02	9.172168676923105e-01	9.630426206596092e-01	1.551762494062441e-02	2.731054443267315e+00	8.901376897443473e-01	9.704767989972826e-01	-2.452283711063677e-01	9.008930773217418e-01	
59	3.409900069240000e-01	-5.839532106977998e-02	9.211898845228526e-01	9.622826418174765e-01	1.556027106772431e-02	2.741409339431312e+00	8.954694727241020e-01	9.720791421715701e-01	-2.333270698122722e-01	8.955615355085759e-01	
60	3.261100053790000e-01	-5.863275292014754e-02	9.248750747080664e-01	9.613304423178515e-01	1.603626017376683e-02	2.750947478169457e+00	9.004788304251553e-01	9.736221194082763e-01	-2.221454678009926e-01	8.904115861051962e-01	
61	3.113999962810000e-01	-5.886672962322460e-02	9.344120151174101e-01	9.588070824724928e-01	1.549849053351801e-02	2.775642601093733e+00	9.134378194233693e-01	9.775535894715510e-01	-1.932191530728363e-01	8.772335725312352e-01	
62	2.968699932100000e-01	-5.909723456849324e-02	9.508718047917847e-01	9.540556207364769e-01	1.266804086629993e-02	2.818250949558459e+00	9.358166062735715e-01	9.841669524300286e-01	-1.432665038536349e-01	8.548533132667412e-01	
63	2.825500071050000e-01	-5.932185602103676e-02	9.483647647527488e-01	9.513190165504022e-01	8.992922968506076e-03	2.810754681193292e+00	9.334283230683168e-01	9.842503198773672e-01	-1.485974931510786e-01	8.545812734168189e-01	
64	2.684499919410000e-01	-5.953656590865983e-02	8.762776655383527e-01	9.580908911513600e-01	9.895733550198403e-03	2.620809511549634e+00	8.387929407501925e-01	9.572227773657442e-01	-3.598371858254631e-01	9.445340153057293e-01	
65	2.545700073240000e-01	-5.973570567316967e-02	7.532392516459945e-01	9.617931325246626e-01	2.508836963689547e-02	2.299678281922470e+00	6.740860714821499e-01	8.949162832514673e-01	-7.274864475844868e-01	1.141145989188288e+00	
66	2.409400045870000e-01	-5.991160638399719e-02	6.961053206658154e-01	9.396685694131045e-01	1.172110196832933e-02	2.144249455366837e+00	6.039696702350672e-01	8.676412208103488e-01	-8.839962717967250e-01	1.224896587764120e+00	
67	2.275699973110000e-01	-6.005555290873245e-02	6.951637142104262e-01	9.455134015498640e-01	8.167446813828617e-03	2.144111912899031e+00	6.004212417156892e-01	8.637119996944226e-01	-8.919168711703366e-01	1.236939053584940e+00	
68	2.144699990750000e-01	-6.015768290007677e-02	6.972807752013276e-01	9.452211240940481e-01	5.321475290649471e-03	2.149404271737549e+00	6.034886768521696e-01	8.654887648062906e-01	-8.850699177406930e-01	1.231509807419163e+00	
69	2.016600072380000e-01	-6.020717826371619e-02	6.951416830941128e-01	9.441452315470316e-01	1.883717315620097e-03	2.143501654250666e+00	6.009309985155776e-01	8.644726868352963e-01	-8.907790211705857e-01	1.234601162047734e+00	
70	1.891400069000000e-01	-6.019262510601736e-02	6.925726412330333e-01	9.434283566211477e-01	-3.304285073170822e-03	2.136660227711217e+00	5.976317079420982e-01	8.629155591218485e-01	-8.981435090578166e-01	1.239361754507658e+00	
71	1.769299954180000e-01	-6.010208580128476e-02	6.919290304477673e-01	9.430845450350304e-01	-9.892653156211672e-03	2.134902154833529e+00	5.968517410471916e-01	8.625909808422864e-01	-8.998845065910901e-01	1.240356404673064e+00	
72	1.650400012730000e-01	-5.992340895256815e-02	6.926811939435054e-01	9.433537899219596e-01	-1.766458729262024e-02	2.136972143759349e+00	5.977504339437806e-01	8.629517289775489e-01	-8.978784956612040e-01	1.239253227885524e+00	
73	1.534900069240000e-01	-5.964464847596692e-02	6.941083687401890e-01	9.438181352297700e-01	-2.686244123612706e-02	2.140883258889198e+00	5.994728787436661e-01	8.636589122700151e-01	-8.940337528043169e-01	1.237091206666421e+00	
74	1.422899961470000e-01	-5.925400256737786e-02	6.968705358673175e-01	9.447387448971193e-01	-3.777952320197048e-02	2.148446590859516e+00	6.028148867025500e-01	8.650313877200926e-01	-8.865739136103795e-01	1.232896577475135e+00	
75	1.314399987460000e-01	-5.873949173390463e-02	7.017654587929297e-01	9.462606880625701e-01	-5.069713494672291e-02	2.161791230705096e+00	6.087963759488628e-01	8.675211473018664e-01	-8.732223751141455e-01	1.225285142300842e+00	
76	1.209499984980000e-01	-5.808974430164101e-02	7.090064624031701e-01	9.483967420644647e-01	-6.566500937658992e-02	2.181510325754984e+00	6.176647688886701e-01	8.711694485761129e-01	-8.534268551592187e-01	1.214123921684972e+00	
77	1.108499988910000e-01	-5.729570099040607e-02	7.183452597454811e-01	9.509439289186485e-01	-8.288052864437324e-02	2.206948997969923e+00	6.290955870463859e-01	8.757565787644825e-01	-8.279116360571743e-01	1.200077280236093e+00	
78	1.011300012470000e-01	-5.634628935326193e-02	7.293712322494982e-01	9.530784786808842e-01	-1.024727917385740e-01	2.236810382373874e+00	6.427648710520563e-01	8.812588742630638e-01	-7.973998414016602e-01	1.183205278968637e+00	
79	9.181000292300000e-02	-5.523366271810398e-02	7.423356616197384e-01	9.547696718462566e-01	-1.248449064005768e-01	2.271826945287696e+00	6.589323581096221e-01	8.876474513858942e-01	-7.613117006481649e-01	1.163577756350225e+00	
80	8.290000259900000e-02	-5.395039381592210e-02	7.576186687026301e-01	9.557043898265987e-01	-1.502123045337092e-01	2.312978384545827e+00	6.781186097504257e-01	8.950658659344516e-01	-7.184852460927997e-01	1.140723982385495e+00	
81	7.440000027400000e-02	-5.248845733000632e-02	7.754433524602974e-01	9.551943919197349e-01	-1.787790053802850e-01	2.360739545878930e+00	7.007297974105319e-01	9.036505312570970e-01	-6.680138450657771e-01	1.114176623174953e+00	
82	6.633000075800000e-02	-5.084435059247864e-02	7.961255902380191e-01	9.526679928008295e-01	-2.107946417434618e-01	2.415917241721717e+00	7.272059660093221e-01	9.134312160370428e-01	-6.089152544434775e-01	1.083770648956292e+00	
83	5.869000032500000e-02	-4.901230134791607e-02	8.198093598681184e-01	9.470364903992686e-01	-2.463176153987679e-01	2.478735925066159e+00	7.578911620910138e-01	9.244724434628740e-01	-5.404215131897013e-01	1.049196816496394e+00	
84	5.149000138000000e-02	-4.698972382746234e-02	8.468072082603854e-01	9.371372695711784e-01	-2.853154565259800e-01	2.549901432737877e+00	7.933136663633709e-01	9.368291372874502e-01	-4.613534232960472e-01	1.010121033649314e+00	
85	4.473999887700000e-02	-4.477590797987149e-02	8.774983854621947e-01	9.214292167942552e-01	-3.274522024925701e-01	2.630239237895547e+00	8.341450385366386e-01	9.505943855352840e-01	-3.702119675521461e-01	9.660048118471503e-01	
86	3.844000026600000e-02	-4.236827483274048e-02	9.121279097750483e-01	8.979313273529599e-01	-3.720642260136001e-01	2.720176452932718e+00	8.809258492124271e-01	9.657920120322639e-01	-2.657905151508324e-01	9.164066961602491e-01	
