"PointID"	"x"	"y"	"Conservative_1"	"Conservative_2"	"Conservative_3"	"Conservative_4"	"Pressure"	"Temperature"	"Pressure_Coefficient"	"Mach"
0	9.997500181200000e-01	-3.632896519016437e-05	1.169292449310751e+00	7.721720883892325e-01	1.077214053338432e-01	3.371524462688085e+00	1.244640305820871e+00	1.064438846376314e+00	5.460721112073009e-01	5.462003678363759e-01	
1	9.990000128750000e-01	-1.452537504052920e-04	1.146811737737490e+00	7.935962357559346e-01	1.131722291588400e-01	3.314026058073326e+00	1.213542693590193e+00	1.058188239321962e+00	4.766577981923955e-01	5.742932889812784e-01	
2	9.977599978450000e-01	-3.251111630156300e-04	1.132925288304907e+00	8.134566901305714e-01	1.169074886983644e-01	3.279991630916634e+00	1.192769170271616e+00	1.052822443443069e+00	4.302883264991421e-01	5.974904496706773e-01	
3	9.960200190539999e-01	-5.769983605901485e-04	1.121594654902963e+00	8.286132592141812e-01	1.190587441339005e-01	3.252143826167568e+00	1.175897070850550e+00	1.048415366202227e+00	3.926273902914064e-01	6.160594687576080e-01	
4	9.937800168990000e-01	-9.004365425509819e-04	1.111931090483974e+00	8.402211776748233e-01	1.208128875335631e-01	3.228222027559833e+00	1.161682329583822e+00	1.044743095615929e+00	3.608980571067463e-01	6.312343921578217e-01	
5	9.910500049590000e-01	-1.293363843462116e-03	1.103547717991151e+00	8.500425477299484e-01	1.219248598051152e-01	3.207482067496011e+00	1.149344233037806e+00	1.041499351863118e+00	3.333576630308172e-01	6.444335183128573e-01	
6	9.878399968150000e-01	-1.753609743384430e-03	1.095841653003069e+00	8.582696032527777e-01	1.226523253272484e-01	3.188287840495177e+00	1.138129201950003e+00	1.038589105306455e+00	3.083241114955432e-01	6.561150408008573e-01	
7	9.841300249100000e-01	-2.283176811071472e-03	1.088774513470838e+00	8.656257652036133e-01	1.231482281395742e-01	3.170684860585910e+00	1.127845702753721e+00	1.035885473805160e+00	2.853698722181282e-01	6.668426496158273e-01	
8	9.799500107769999e-01	-2.876826092032643e-03	1.082152293393621e+00	8.722156870835269e-01	1.234543443268959e-01	3.154160410378669e+00	1.118246054766098e+00	1.033353680062246e+00	2.639420865314692e-01	6.767905617286962e-01	
9	9.752799868580000e-01	-3.536324145770189e-03	1.075901039090260e+00	8.782383174353368e-01	1.235879642300240e-01	3.138544118162247e+00	1.109200384052796e+00	1.030950193142943e+00	2.437508572607063e-01	6.861440538952369e-01	
10	9.701499938960000e-01	-4.256268552403566e-03	1.069946626448520e+00	8.837435564116058e-01	1.235629026802181e-01	3.123636618965903e+00	1.100611622199037e+00	1.028660304161436e+00	2.245795138371356e-01	6.949733986591888e-01	
11	9.645400047300000e-01	-5.038225493362627e-03	1.064242578705207e+00	8.888595349473923e-01	1.234127141188396e-01	3.109344502478038e+00	1.092399753259122e+00	1.026457477944711e+00	2.062494492391113e-01	7.034030567266688e-01	
12	9.584699869160000e-01	-5.878077433056352e-03	1.058747572214751e+00	8.936159733478136e-01	1.231307538757995e-01	3.095548732652978e+00	1.084507557992435e+00	1.024330620871034e+00	1.886329419474001e-01	7.114731053164420e-01	
13	9.519400000570000e-01	-6.774428848839826e-03	1.053440842673313e+00	8.980865685616363e-01	1.227418333375347e-01	3.082221791634727e+00	1.076899882919888e+00	1.022268967839755e+00	1.716515243747508e-01	7.192503385359753e-01	
14	9.449599981310000e-01	-7.724467125531491e-03	1.048297318639864e+00	9.022776120861818e-01	1.222444355433065e-01	3.069282381476077e+00	1.069542445702383e+00	1.020266318233155e+00	1.552286734428187e-01	7.267494725295339e-01	
15	9.375399947170000e-01	-8.725349486403867e-03	1.043303809551933e+00	9.062422856848812e-01	1.216574681090797e-01	3.056715969545387e+00	1.062411765554647e+00	1.018314853092429e+00	1.393119766844804e-01	7.340183709470437e-01	
16	9.296900033950000e-01	-9.774221272349531e-03	1.038439338568100e+00	9.099778437557299e-01	1.209725523983460e-01	3.044451223081310e+00	1.055480390755499e+00	1.016410252919440e+00	1.238401579363808e-01	7.410632750262399e-01	
17	9.214000105860000e-01	-1.087086069705918e-02	1.033687471029597e+00	9.135394895642514e-01	1.202152788756435e-01	3.032467337346042e+00	1.048719468017720e+00	1.014542110076221e+00	1.087488125395543e-01	7.479405843899486e-01	
18	9.126999974250000e-01	-1.200973104171110e-02	1.029043981427086e+00	9.169096217490298e-01	1.193698145951722e-01	3.020736617040373e+00	1.042126354202115e+00	1.012713132782611e+00	9.403204062972018e-02	7.546314026720333e-01	
19	9.035800099370001e-01	-1.319055953446835e-02	1.024489377378180e+00	9.201259518066502e-01	1.184610613839532e-01	3.009224951094686e+00	1.035671685810969e+00	1.010915006714279e+00	7.962429868519946e-02	7.611814901208377e-01	
20	8.940600156780000e-01	-1.440916392228702e-02	1.020028553645808e+00	9.231857760497906e-01	1.174739410008593e-01	2.997932890712965e+00	1.029359850408719e+00	1.009148074070632e+00	6.553538037660521e-02	7.675792577391051e-01	
21	8.841500282290000e-01	-1.566269158090452e-02	1.015644351283594e+00	9.261221396006450e-01	1.164336210472426e-01	2.986833857921581e+00	1.023165807973230e+00	1.007405600868188e+00	5.170939279738835e-02	7.738660320744682e-01	
22	8.738499879840000e-01	-1.694956337677533e-02	1.011329838811341e+00	9.289028264235789e-01	1.153209563550612e-01	2.975885538700475e+00	1.017085445927786e+00	1.005691127558552e+00	3.813715608880765e-02	7.800140223534269e-01	
23	8.631799817090000e-01	-1.826569132102762e-02	1.007074394323178e+00	9.315984706135551e-01	1.141631252363016e-01	2.965091090781659e+00	1.011092274376094e+00	1.003989655655595e+00	2.475954101806635e-02	7.860955095268960e-01	
24	8.521599769590000e-01	-1.960709133914372e-02	1.002877855917230e+00	9.341600089805273e-01	1.129409018161400e-01	2.954423915603077e+00	1.005195606719161e+00	1.002311099789727e+00	1.159733642669959e-02	7.920617141591892e-01	
25	8.407700061800000e-01	-2.097463226217677e-02	9.987093258876487e-01	9.366418758868553e-01	1.116807870638553e-01	2.943826585276262e+00	9.993465361352054e-01	1.000638033741189e+00	-1.458624698202210e-03	7.979899099381043e-01	
26	8.290500044819999e-01	-2.236196298315981e-02	9.945834994966122e-01	9.390095123179835e-01	1.103580900839288e-01	2.933316913056410e+00	9.935695557528577e-01	9.989805343198761e-01	-1.435367019451416e-02	8.038314707906384e-01	
27	8.170099854470000e-01	-2.376642068849115e-02	9.904701602791623e-01	9.413069736675649e-01	1.089953666649211e-01	2.922834759149347e+00	9.878182326502196e-01	9.973225567661774e-01	-2.719144497718835e-02	8.096552497427117e-01	
28	8.046399950980000e-01	-2.518763605296113e-02	9.863979966862645e-01	9.435065846434825e-01	1.075790387227009e-01	2.912443836291906e+00	9.821349237516209e-01	9.956781411266397e-01	-3.987740234013187e-02	8.154063966411114e-01	
29	7.919700145720000e-01	-2.662062628442961e-02	9.823416979261907e-01	9.456221684705443e-01	1.061176452763193e-01	2.902083061330133e+00	9.764855088536013e-01	9.940385416958761e-01	-5.248770345178281e-02	8.211206293322227e-01	
30	7.790099978450000e-01	-2.806276676215449e-02	9.783239707500119e-01	9.476664351763525e-01	1.045974598135972e-01	2.891813789524054e+00	9.708949876539147e-01	9.924064182027538e-01	-6.496654541536900e-02	8.267865165737861e-01	
31	7.657799720760000e-01	-2.951033727360171e-02	9.743270234891108e-01	9.496567483442550e-01	1.030283610136634e-01	2.881596099302016e+00	9.653373055325388e-01	9.907734079627811e-01	-7.737208586486870e-02	8.324375129333113e-01	
32	7.522799968720000e-01	-3.096181144522562e-02	9.702473944148694e-01	9.515831937958493e-01	1.014139218905895e-01	2.871144795086427e+00	9.596822792563328e-01	9.891109059201257e-01	-8.999491237425723e-02	8.381663493391913e-01	
33	7.385200262070000e-01	-3.241453277608040e-02	9.661402452440687e-01	9.534556762971370e-01	9.973735179283050e-02	2.860599561555671e+00	9.539930627199708e-01	9.874271022412187e-01	-1.026940564286367e-01	8.439311414052540e-01	
34	7.245299816130000e-01	-3.386376679305321e-02	9.619598659435497e-01	9.552648896211312e-01	9.800577124219174e-02	2.849849898717273e+00	9.482196657020617e-01	9.857164516650491e-01	-1.155811033436122e-01	8.497683433221986e-01	
35	7.103199958800001e-01	-3.530689307158652e-02	9.577387380291181e-01	9.570353184117556e-01	9.623759846479626e-02	2.839002264133673e+00	9.424003511996227e-01	9.839847901933473e-01	-1.285706446436993e-01	8.556722522317212e-01	
36	6.958900094030001e-01	-3.674225211597043e-02	9.536033606810430e-01	9.587285987499337e-01	9.435639300011749e-02	2.828357183251018e+00	9.366993363275087e-01	9.822735268660739e-01	-1.412961242689539e-01	8.614714160459569e-01	
37	6.812700033190000e-01	-3.816515293304169e-02	9.493765197599638e-01	9.603919113896922e-01	9.246751880123560e-02	2.817512078451685e+00	9.308965758844522e-01	9.805346524894214e-01	-1.542487145436335e-01	8.673975798966967e-01	
38	6.664699912070000e-01	-3.957289370556494e-02	9.451865333855517e-01	9.619937486696738e-01	9.048019586135876e-02	2.806729541902997e+00	9.251395653598747e-01	9.787904637681720e-01	-1.670991844645653e-01	8.732897216444870e-01	
39	6.514999866490000e-01	-4.096270419333766e-02	9.408931017584208e-01	9.635242390166789e-01	8.844601962441252e-02	2.795676411253099e+00	9.192677966394240e-01	9.770161933607746e-01	-1.802058110727142e-01	8.792847067048559e-01	
40	6.363800168040000e-01	-4.233084266562091e-02	9.367688487700631e-01	9.649928798557739e-01	8.627555141938088e-02	2.785078974665966e+00	9.136289547494154e-01	9.752981815620479e-01	-1.927925117200549e-01	8.850906865008583e-01	
41	6.211299896240000e-01	-4.367359094194759e-02	9.328899368107884e-01	9.663310549927370e-01	8.387591702042664e-02	2.775096469638085e+00	9.083361489768060e-01	9.736798663324393e-01	-2.046068103196294e-01	8.905396488825438e-01	
42	6.057599782940000e-01	-4.498807223669178e-02	9.288370713033713e-01	9.677443518194340e-01	8.148981738083433e-02	2.764738673145070e+00	9.028093199311721e-01	9.719781303133432e-01	-2.169434822964909e-01	8.963200678154705e-01	
43	5.902799963950000e-01	-4.627132533375768e-02	9.246514823189816e-01	9.690026211697959e-01	7.866815713110199e-02	2.753742568843161e+00	8.970622157506793e-01	9.701625238310226e-01	-2.297718398422336e-01	9.021673951981650e-01	
44	5.747100114820000e-01	-4.751950934859488e-02	9.188258652974630e-01	9.705436069469978e-01	7.631823360626094e-02	2.738619054180833e+00	8.891453392567997e-01	9.676973329096976e-01	-2.474434391589292e-01	9.103043594217195e-01	
45	5.590599775310000e-01	-4.872955796694115e-02	9.124282740259162e-01	9.718206681434418e-01	7.378165810438518e-02	2.721655898317549e+00	8.804533041840352e-01	9.649561825821144e-01	-2.668453031606356e-01	9.190044771892029e-01	
46	5.433599948880000e-01	-4.989683951066199e-02	9.065076397405116e-01	9.727962633176053e-01	7.086004809599769e-02	2.705956335949771e+00	8.724882820571835e-01	9.624720673142193e-01	-2.846243704080725e-01	9.269182989730124e-01	
47	5.276100039480000e-01	-5.101897737545535e-02	9.015566515131047e-01	9.740013124684448e-01	6.818555445137910e-02	2.693416663494314e+00	8.658818241675927e-01	9.604297441701108e-01	-2.993709281973376e-01	9.339664900896097e-01	
48	5.118399858470000e-01	-5.209138375948307e-02	8.987176802635366e-01	9.746902184586013e-01	6.445910346998752e-02	2.685966776016731e+00	8.620450554168335e-01	9.591944993939039e-01	-3.079351441588538e-01	9.379368539081125e-01	
49	4.960500001910000e-01	-5.311153541819326e-02	8.950410051619840e-01	9.760391655679042e-01	6.110065524641926e-02	2.676897825088678e+00	8.570514368061652e-01	9.575554995394393e-01	-3.190816142719526e-01	9.436862320504810e-01	
50	4.802699983120000e-01	-5.407492053959814e-02	8.894158275742826e-01	9.774345007738577e-01	5.829215050109764e-02	2.662506333810858e+00	8.494057005496098e-01	9.550152743134864e-01	-3.361479898446209e-01	9.521044328171742e-01	
51	4.645099937920000e-01	-5.497835513414191e-02	8.838405437539167e-01	9.777221953481662e-01	5.497459862618381e-02	2.647425749970163e+00	8.419712259927569e-01	9.526279733860941e-01	-3.527427991233106e-01	9.594035025919418e-01	
52	4.487800002100000e-01	-5.581859897363720e-02	8.820661546336520e-01	9.776509842955815e-01	5.105815717868468e-02	2.642700016233074e+00	8.397701420405665e-01	9.520489337779295e-01	-3.576559329451640e-01	9.613476967801438e-01	
53	4.331099987030000e-01	-5.659141825851464e-02	8.861982147378330e-01	9.768529530863975e-01	4.567901766287655e-02	2.653278660429451e+00	8.454842939734799e-01	9.540577716279902e-01	-3.449011295234823e-01	9.548194791382832e-01	
54	4.174999892710000e-01	-5.729416860686566e-02	8.900433931839852e-01	9.763559874644302e-01	3.919587703466711e-02	2.663250290090625e+00	8.507471316882640e-01	9.558490498366096e-01	-3.331537239101250e-01	9.490476485094591e-01	
55	4.019699990750000e-01	-5.792324246601335e-02	8.791070398339632e-01	9.779887987266185e-01	3.383587285377783e-02	2.634884484881364e+00	8.360947817195474e-01	9.510727861734114e-01	-3.658598622331531e-01	9.646749317252485e-01	
56	3.865399956700000e-01	-5.847520956655861e-02	8.424538105522260e-01	9.805149360617956e-01	3.259441188945170e-02	2.539111347666284e+00	7.871520274365194e-01	9.343563024785224e-01	-4.751070816149122e-01	1.018187265275749e+00	
57	3.712300062180000e-01	-5.894684318665333e-02	7.970568698808203e-01	9.779076698145837e-01	3.109107627465380e-02	2.419187795016593e+00	7.274739223631590e-01	9.127001470697248e-01	-6.083171375822344e-01	1.085925050813119e+00	
58	3.560400009160000e-01	-5.933561549045978e-02	7.715337752281509e-01	9.722413743087487e-01	2.447366637133570e-02	2.350818998084450e+00	6.951400829818254e-01	9.009846429292937e-01	-6.804908862012826e-01	1.122364691508221e+00	
59	3.409900069240000e-01	-5.963847719943702e-02	7.670553798729912e-01	9.709356114194144e-01	1.753853980521158e-02	2.338818963338420e+00	6.896461048985743e-01	8.990825473550107e-01	-6.927542301371110e-01	1.128419935590022e+00	
60	3.261100053790000e-01	-5.985254444802346e-02	7.707873594184458e-01	9.713266684813061e-01	1.114148220280551e-02	2.348592299901612e+00	6.945964674029879e-01	9.011518662255394e-01	-6.817043138326164e-01	1.122008859053960e+00	
61	3.113999962810000e-01	-5.997565198183213e-02	7.750969339783114e-01	9.721486353034751e-01	5.093004910772868e-03	2.360011800212007e+00	7.001387295510622e-01	9.032918321034844e-01	-6.693331929663792e-01	1.115333000313073e+00	
62	2.968699932100000e-01	-6.000550062925582e-02	7.783209133362475e-01	9.730173629688907e-01	-1.065740945005159e-03	2.368686970970777e+00	7.041910969905238e-01	9.047567461242068e-01	-6.602877299318665e-01	1.110790655826974e+00	
63	2.825500071050000e-01	-5.994005483718394e-02	7.813027826294472e-01	9.736835140509558e-01	-7.600949603685063e-03	2.376674365198085e+00	7.079680992788374e-01	9.061379467972656e-01	-6.518569212525951e-01	1.106497664001145e+00	
64	2.684499919410000e-01	-5.977765596976551e-02	7.847559356893136e-01	9.743539629113092e-01	-1.453825318259272e-02	2.385913698130929e+00	7.123597899261772e-01	9.077469280948541e-01	-6.420540403433544e-01	1.101498915064734e+00	
65	2.545700073240000e-01	-5.951657836311273e-02	7.887789735194555e-01	9.750049180637894e-01	-2.184272041235943e-02	2.396660276062674e+00	7.175036011787793e-01	9.096383464398751e-01	-6.305723187973676e-01	1.095625263504788e+00	
66	2.409400045870000e-01	-5.915585896897953e-02	7.933513976622717e-01	9.756516879822191e-01	-2.953373029650168e-02	2.408857444825833e+00	7.233547182776106e-01	9.117709005228747e-01	-6.175117895589051e-01	1.088983282405593e+00	
67	2.275699973110000e-01	-5.869456802648413e-02	7.983375373160357e-01	9.762233514341210e-01	-3.761056222132912e-02	2.422141914566146e+00	7.297532434029484e-01	9.140911071980110e-01	-6.032293674041329e-01	1.081747635117736e+00	
68	2.144699990750000e-01	-5.813197420944613e-02	8.036122011828970e-01	9.766930725310169e-01	-4.608630914059282e-02	2.436182170519897e+00	7.365338960487520e-01	9.165290110884240e-01	-5.880939820340358e-01	1.074131383441607e+00	
69	2.016600072380000e-01	-5.746811193675738e-02	8.090902070306820e-01	9.770067668064025e-01	-5.498344835237807e-02	2.450746032410790e+00	7.435966475351102e-01	9.190528337551761e-01	-5.723289117519861e-01	1.066235213216912e+00	
70	1.891400069000000e-01	-5.670228146432130e-02	8.148257611098889e-01	9.771527613321566e-01	-6.433590733653632e-02	2.465974812470499e+00	7.510103693281900e-01	9.216821622149322e-01	-5.557804256067188e-01	1.057992007687942e+00	
71	1.769299954180000e-01	-5.583513598033686e-02	8.210332518299319e-01	9.770992444875495e-01	-7.420520202507316e-02	2.482427452071465e+00	7.590634397038999e-01	9.245221652254492e-01	-5.378048220895092e-01	1.049069012668520e+00	
72	1.650400012730000e-01	-5.486709202536137e-02	8.279579333517559e-01	9.768299128880492e-01	-8.464155298947777e-02	2.500752380582305e+00	7.680763832107871e-01	9.276756128194158e-01	-5.176866446187789e-01	1.039137125607559e+00	
73	1.534900069240000e-01	-5.379977779145956e-02	8.356330741042464e-01	9.762632468698699e-01	-9.566412872202086e-02	2.521023156141654e+00	7.781068528148422e-01	9.311585155349805e-01	-4.952972035382988e-01	1.028136092500621e+00	
74	1.422899961470000e-01	-5.263443049277360e-02	8.439193838798685e-01	9.753487214943429e-01	-1.072925265553026e-01	2.542872456327461e+00	7.889715444565611e-01	9.348897057315027e-01	-4.710456596951760e-01	1.016311088948013e+00	
75	1.314399987460000e-01	-5.137133628795417e-02	8.526359295557775e-01	9.739427387956888e-01	-1.195704798453064e-01	2.565793990913532e+00	8.004623339429309e-01	9.388090581169518e-01	-4.453965760202436e-01	1.003842644095579e+00	
76	1.209499984980000e-01	-5.001187382363489e-02	8.618335728066500e-01	9.720542877972052e-01	-1.325931168576848e-01	2.589944877525535e+00	8.126238131739301e-01	9.429010876514557e-01	-4.182504170224776e-01	9.907708334454799e-01	
77	1.108499988910000e-01	-4.856066993422563e-02	8.716971607466348e-01	9.695891194594289e-01	-1.464123229750636e-01	2.615801912421385e+00	8.257075354681900e-01	9.472412813194744e-01	-3.890456797585045e-01	9.768404531550859e-01	
78	1.011300012470000e-01	-4.701715290498424e-02	8.822799450437787e-01	9.663059255959829e-01	-1.610838756076685e-01	2.643457080945182e+00	8.398339325727899e-01	9.518905391543470e-01	-3.575135433643082e-01	9.618397496425298e-01	
79	9.181000292300000e-02	-4.538527151431038e-02	8.936111366820384e-01	9.620335532053825e-01	-1.767099125622017e-01	2.672966799038974e+00	8.550589158276792e-01	9.568579449473933e-01	-3.235292057417875e-01	9.457132978145147e-01	
80	8.290000259900000e-02	-4.366791468532204e-02	9.057950579716472e-01	9.566911489868732e-01	-1.933877128993584e-01	2.704625561522983e+00	8.715031370056111e-01	9.621416338450487e-01	-2.868233548981895e-01	9.284419576361332e-01	
81	7.440000027400000e-02	-4.186607976498817e-02	9.188764752791074e-01	9.499742512387043e-01	-2.111999209867274e-01	2.738504291992101e+00	8.892681373396732e-01	9.677776733478345e-01	-2.471693362953722e-01	9.098692562802647e-01	
82	6.633000075800000e-02	-3.998513962421356e-02	9.329897868913664e-01	9.416254239584320e-01	-2.302745387791987e-01	2.774948046127845e+00	9.085440440349614e-01	9.737984882579951e-01	-2.041427588505327e-01	8.898476255909578e-01	
83	5.869000032500000e-02	-3.802635805630503e-02	9.482384644683474e-01	9.312304433157049e-01	-2.507105125825194e-01	2.814180466900166e+00	9.295093153880832e-01	9.802484820200108e-01	-1.573452781515999e-01	8.681654851992490e-01	
84	5.149000138000000e-02	-3.599337852580232e-02	9.647881867314793e-01	9.183042319164668e-01	-2.725864926177474e-01	2.856602201535167e+00	9.524258529152001e-01	9.871864788703931e-01	-1.061922925999998e-01	8.445547502844050e-01	
85	4.473999887700000e-02	-3.389028465845557e-02	9.828880911211819e-01	9.021174777221883e-01	-2.959692752629900e-01	2.902793920150546e+00	9.776961259541695e-01	9.947176436321559e-01	-4.978543313801440e-02	8.185478817984861e-01	
86	3.844000026600000e-02	-3.171811260404538e-02	1.002736452057070e+00	8.817891310988333e-01	-3.208889193416591e-01	2.953200896528666e+00	1.005656590576717e+00	1.002912169507408e+00	1.262631825159939e-02	7.897466232733427e-01	
