"Global_Index", "x_coord", "y_coord", "Pressure", "Pressure_Coefficient", "Mach_Number"
149, 4.960500001910000e-01, 4.664034321021938e-02, 7.826488793361195e-01, -4.851587514818761e-01, 1.021841685970699e+00
150, 5.118399858470000e-01, 4.623913560742672e-02, 7.886096962886791e-01, -4.718533564984843e-01, 1.015449341875581e+00
151, 5.276100039480000e-01, 4.575860149101060e-02, 7.947605105291458e-01, -4.581238604260139e-01, 1.008899616497233e+00
152, 5.433599948880000e-01, 4.519706361269304e-02, 8.014069978055680e-01, -4.432879513268571e-01, 1.001844785771798e+00
153, 5.590599775310000e-01, 4.455417198386800e-02, 8.088514633573799e-01, -4.266708407201342e-01, 9.939652290538319e-01
154, 5.747100114820000e-01, 4.382881523291172e-02, 8.170670107808244e-01, -4.083325652213740e-01, 9.852731796640477e-01
155, 5.902799963950000e-01, 4.302164711332186e-02, 8.257331067709597e-01, -3.889886009576793e-01, 9.761198142441173e-01
156, 6.057599782940000e-01, 4.213294677587866e-02, 8.345866976037603e-01, -3.692261214201780e-01, 9.668248466857091e-01
157, 6.211299896240000e-01, 4.116410033200442e-02, 8.436893279533000e-01, -3.489077501042411e-01, 9.572880410109795e-01
158, 6.363800168040000e-01, 4.011650652121702e-02, 8.532730985224904e-01, -3.275154050837267e-01, 9.472962275959946e-01
159, 6.514999866490000e-01, 3.899211579118061e-02, 8.634094263708391e-01, -3.048896732793771e-01, 9.367566475114077e-01
160, 6.664699912070000e-01, 3.779428398695378e-02, 8.740201143164681e-01, -2.812051019721695e-01, 9.257684975804643e-01
161, 6.812700033190000e-01, 3.652722433605417e-02, 8.849946170419148e-01, -2.567084441028686e-01, 9.144369215968342e-01
162, 6.958900094030001e-01, 3.519508013344413e-02, 8.962694179170045e-01, -2.315414778638292e-01, 9.028366651854230e-01
163, 7.103199958800001e-01, 3.380265675266156e-02, 9.078327111479891e-01, -2.057305554732385e-01, 8.909775555118596e-01
164, 7.245299816130000e-01, 3.235751004596097e-02, 9.196459766256979e-01, -1.793616593176386e-01, 8.788963219898166e-01
165, 7.385200262070000e-01, 3.086497466674567e-02, 9.316910541438596e-01, -1.524753255717421e-01, 8.666123582186462e-01
166, 7.522799968720000e-01, 2.933198504598072e-02, 9.439039417001073e-01, -1.252144158479748e-01, 8.541793860536233e-01
167, 7.657799720760000e-01, 2.776843390265468e-02, 9.562501310015480e-01, -9.765595758583039e-02, 8.416577975477082e-01
168, 7.790099978450000e-01, 2.618268780269140e-02, 9.686543038376592e-01, -6.996807179093938e-02, 8.290515657375925e-01
169, 7.919700145720000e-01, 2.458238487966700e-02, 9.810889739302160e-01, -4.221211176291074e-02, 8.164612638185620e-01
170, 8.046399950980000e-01, 2.297804180755889e-02, 9.934486878765590e-01, -1.462346456125213e-02, 8.039604092124680e-01
171, 8.170099854470000e-01, 2.137929312914867e-02, 1.005628686565805e+00, 1.256403251295823e-02, 7.916243450488661e-01
172, 8.290500044819999e-01, 1.979848726339764e-02, 1.017520859282017e+00, 3.910906089735905e-02, 7.795999250027741e-01
173, 8.407700061800000e-01, 1.824241618197137e-02, 1.029007804053063e+00, 6.474956261844375e-02, 7.679893820440532e-01
174, 8.521599769590000e-01, 1.671952253811339e-02, 1.040017907176386e+00, 8.932568566157487e-02, 7.568627677283885e-01
175, 8.631799817090000e-01, 1.524064168916438e-02, 1.050517419108900e+00, 1.127620962252236e-01, 7.462488782848973e-01
176, 8.738499879840000e-01, 1.380625260383932e-02, 1.060576159830589e+00, 1.352146424789922e-01, 7.360542348144190e-01
177, 8.841500282290000e-01, 1.241956545008002e-02, 1.070443868918042e+00, 1.572407788349157e-01, 7.260318912308303e-01
178, 8.940600156780000e-01, 1.108176733296688e-02, 1.080510520286017e+00, 1.797109827812875e-01, 7.157333141192799e-01
179, 9.035800099370001e-01, 9.791152312551047e-03, 1.091327628911340e+00, 2.038563145342402e-01, 7.046140665168169e-01
180, 9.126999974250000e-01, 8.550412184541764e-03, 1.103345588859443e+00, 2.306821179898291e-01, 6.921617383602970e-01
181, 9.214000105860000e-01, 7.370489723742996e-03, 1.116692656056758e+00, 2.604746786981206e-01, 6.782803605316203e-01
182, 9.296900033950000e-01, 6.267966167209947e-03, 1.130813458816284e+00, 2.919943277149195e-01, 6.635503461248552e-01
31, 7.657799720760000e-01, -3.609209383687162e-02, 9.119459499356275e-01, -1.965492188936886e-01, 8.880273079543898e-01
32, 7.522799968720000e-01, -3.755783241481294e-02, 9.050513037531985e-01, -2.119390541223247e-01, 8.950698632509381e-01
33, 7.385200262070000e-01, -3.900312796630334e-02, 8.981419099169606e-01, -2.273618082210700e-01, 9.021426892187219e-01
34, 7.245299816130000e-01, -4.042210639128155e-02, 8.912883003156044e-01, -2.426600439383831e-01, 9.091730781677739e-01
35, 7.103199958800001e-01, -4.181113754416402e-02, 8.845567104057114e-01, -2.576859142729657e-01, 9.160914593860804e-01
36, 6.958900094030001e-01, -4.316765770153194e-02, 8.779678254667190e-01, -2.723932467260736e-01, 9.228868782832608e-01
37, 6.812700033190000e-01, -4.448646972128854e-02, 8.715335672055683e-01, -2.867554303447136e-01, 9.295299478991238e-01
38, 6.664699912070000e-01, -4.576457320730781e-02, 8.652664689799926e-01, -3.007444888839451e-01, 9.360127068600388e-01
39, 6.514999866490000e-01, -4.699919352803209e-02, 8.591839101625354e-01, -3.143216291014835e-01, 9.423269879765972e-01
40, 6.363800168040000e-01, -4.818702279635803e-02, 8.532922762888299e-01, -3.274725975695762e-01, 9.484457036237891e-01
41, 6.211299896240000e-01, -4.932515319553206e-02, 8.475953533681639e-01, -3.401889433746341e-01, 9.543888009088954e-01
42, 6.057599782940000e-01, -5.041173576944938e-02, 8.420792396675012e-01, -3.525016971707562e-01, 9.601427602052750e-01
43, 5.902799963950000e-01, -5.144513924340141e-02, 8.367550599086039e-01, -3.643860269897235e-01, 9.657222141105838e-01
44, 5.747100114820000e-01, -5.242331920854174e-02, 8.316535293067964e-01, -3.757733720830438e-01, 9.710629570794996e-01
45, 5.590599775310000e-01, -5.334512514155446e-02, 8.268302031757830e-01, -3.865397250540557e-01, 9.761361232949662e-01
46, 5.433599948880000e-01, -5.420847473166394e-02, 8.222790857940083e-01, -3.966984692098028e-01, 9.809205641200277e-01
47, 5.276100039480000e-01, -5.501318578195472e-02, 8.178999342532832e-01, -4.064733610417786e-01, 9.855578855583410e-01
48, 5.118399858470000e-01, -5.575762870944179e-02, 8.135099988501975e-01, -4.162723239950949e-01, 9.902079977436856e-01
49, 4.960500001910000e-01, -5.644175552199925e-02, 8.090843068710696e-01, -4.261511007342197e-01, 9.949316099088186e-01
50, 4.802699983120000e-01, -5.706423975584921e-02, 8.049093467351424e-01, -4.354702081804858e-01, 9.993721889773741e-01
51, 4.645099937920000e-01, -5.762469755798906e-02, 8.014450125549982e-01, -4.432030969754504e-01, 1.003051615739529e+00
52, 4.487800002100000e-01, -5.812267567333951e-02, 7.988511136130778e-01, -4.489930499708085e-01, 1.005768080613378e+00
53, 4.331099987030000e-01, -5.855710763996430e-02, 7.967297858922726e-01, -4.537281564904629e-01, 1.007987126707956e+00
54, 4.174999892710000e-01, -5.892777232098122e-02, 7.941899363216780e-01, -4.593974635676830e-01, 1.010689336159153e+00
55, 4.019699990750000e-01, -5.923378944677218e-02, 7.902227144648973e-01, -4.682528694979970e-01, 1.015018168062581e+00
56, 3.865399956700000e-01, -5.947428144392788e-02, 7.841713412378342e-01, -4.817603990226916e-01, 1.021679356098345e+00
57, 3.712300062180000e-01, -5.964836597607292e-02, 7.762279714987521e-01, -4.994911350474283e-01, 1.030472144315296e+00
58, 3.560400009160000e-01, -5.975525651231664e-02, 7.675812503378329e-01, -5.187918519244802e-01, 1.040014656516476e+00
59, 3.409900069240000e-01, -5.979380499778159e-02, 7.598865791558080e-01, -5.359674572415000e-01, 1.048478438137568e+00
60, 3.261100053790000e-01, -5.976291353250505e-02, 7.542989893455505e-01, -5.484397559251105e-01, 1.054595064967095e+00
61, 3.113999962810000e-01, -5.966142514664437e-02, 7.510653603062912e-01, -5.556576778877428e-01, 1.058080961106746e+00
62, 2.968699932100000e-01, -5.948798303961895e-02, 7.498048860367148e-01, -5.584712365251902e-01, 1.059406650494793e+00
63, 2.825500071050000e-01, -5.924148718529398e-02, 7.499591481102424e-01, -5.581269015396374e-01, 1.059164312139317e+00
64, 2.684499919410000e-01, -5.892064707461149e-02, 7.511079530281386e-01, -5.555626048479050e-01, 1.057860654048959e+00
65, 2.545700073240000e-01, -5.852377533064777e-02, 7.530108817885549e-01, -5.513149960076900e-01, 1.055711006889856e+00
66, 2.409400045870000e-01, -5.805000214801768e-02, 7.555889368948318e-01, -5.455604087168934e-01, 1.052846413681261e+00
67, 2.275699973110000e-01, -5.749803268655158e-02, 7.587502452404973e-01, -5.385039168738900e-01, 1.049328456492109e+00
68, 2.144699990750000e-01, -5.686656496251918e-02, 7.623706529123361e-01, -5.304226497492498e-01, 1.045335278074401e+00
69, 2.016600072380000e-01, -5.615490227587979e-02, 7.663193942797074e-01, -5.216084949113674e-01, 1.040977319212218e+00
70, 1.891400069000000e-01, -5.536135037384356e-02, 7.706143225666038e-01, -5.120216014138309e-01, 1.036267105993689e+00
71, 1.769299954180000e-01, -5.448547105377523e-02, 7.754859668810548e-01, -5.011473953547885e-01, 1.030920487242993e+00
72, 1.650400012730000e-01, -5.352640598756123e-02, 7.812530447454196e-01, -4.882744536932599e-01, 1.024620257195101e+00
73, 1.534900069240000e-01, -5.248435864846368e-02, 7.880196875852253e-01, -4.731703402115506e-01, 1.017233623190521e+00
74, 1.422899961470000e-01, -5.135902627129556e-02, 7.956737473760005e-01, -4.560853853214275e-01, 1.008937494600749e+00
75, 1.314399987460000e-01, -5.014912747505443e-02, 8.040531521860522e-01, -4.373813567275620e-01, 9.998512048358785e-01
76, 1.209499984980000e-01, -4.885438946744071e-02, 8.132197977251602e-01, -4.169200943634818e-01, 9.900016035061526e-01
77, 1.108499988910000e-01, -4.747757552659299e-02, 8.234196992124531e-01, -3.941524571150601e-01, 9.791360179676251e-01
78, 1.011300012470000e-01, -4.601648733660944e-02, 8.347760787120508e-01, -3.688033957320294e-01, 9.670424407172505e-01
79, 9.181000292300000e-02, -4.447321395705060e-02, 8.473551258580937e-01, -3.407251654953266e-01, 9.536650626032319e-01
80, 8.290000259900000e-02, -4.284885041410220e-02, 8.612907621280256e-01, -3.096188345356572e-01, 9.389612529772892e-01
81, 7.440000027400000e-02, -4.114272948885257e-02, 8.767014688265897e-01, -2.752199356549336e-01, 9.227704448666539e-01
82, 6.633000075800000e-02, -3.935836743477245e-02, 8.938014110778281e-01, -2.370504217012766e-01, 9.049209491542450e-01
83, 5.869000032500000e-02, -3.749544187463274e-02, 9.127909137216846e-01, -1.946631390140968e-01, 8.851889347051566e-01
84, 5.149000138000000e-02, -3.555595114953845e-02, 9.339695380395512e-01, -1.473894240188590e-01, 8.632645414629182e-01
113, 4.473999887700000e-02, 2.395259468561375e-02, 6.842191516364518e-01, -7.048679650972060e-01, 1.128803557082440e+00
114, 5.149000138000000e-02, 2.528909822056759e-02, 6.829120085133037e-01, -7.077856952828043e-01, 1.130632897117774e+00
115, 5.869000032500000e-02, 2.658791797604135e-02, 6.827487542613317e-01, -7.081501020952417e-01, 1.131105085467493e+00
116, 6.633000075800000e-02, 2.784980278467788e-02, 6.835933332711033e-01, -7.062648810912874e-01, 1.130299025205020e+00
117, 7.440000027400000e-02, 2.907543747422704e-02, 6.851391763839296e-01, -7.028143384287285e-01, 1.128597108855085e+00
118, 8.290000259900000e-02, 3.026675434941850e-02, 6.869463575671356e-01, -6.987804518590723e-01, 1.126613692975242e+00
119, 9.181000292300000e-02, 3.142267047378071e-02, 6.886033658497894e-01, -6.950817726567200e-01, 1.124816483573294e+00
120, 1.011300012470000e-01, 3.254470899236423e-02, 6.901177470792441e-01, -6.917014574124015e-01, 1.123223537778610e+00
121, 1.108499988910000e-01, 3.363285244886692e-02, 6.918979509222910e-01, -6.877277881198862e-01, 1.121362863174638e+00
122, 1.209499984980000e-01, 3.468598185368937e-02, 6.942992959268782e-01, -6.823676430203611e-01, 1.118754693551938e+00
123, 1.314399987460000e-01, 3.570596302786876e-02, 6.971607435322726e-01, -6.759804831868914e-01, 1.115519105692928e+00
124, 1.422899961470000e-01, 3.669051709752334e-02, 6.999472203716567e-01, -6.697606688132663e-01, 1.112358047633888e+00
125, 1.534900069240000e-01, 3.763938702193685e-02, 7.023548033126823e-01, -6.643865997484770e-01, 1.109648453246017e+00
126, 1.650400012730000e-01, 3.855293937143508e-02, 7.044884619957624e-01, -6.596239687594588e-01, 1.107290796424039e+00
127, 1.769299954180000e-01, 3.943049175983449e-02, 7.065474130971676e-01, -6.550280957652509e-01, 1.105018063430134e+00
128, 1.891400069000000e-01, 4.027057919907932e-02, 7.086586489213430e-01, -6.503155158005737e-01, 1.102699517437689e+00
129, 2.016600072380000e-01, 4.107241354581016e-02, 7.109217400283894e-01, -6.452639731509165e-01, 1.100197358106023e+00
130, 2.144699990750000e-01, 4.183449576034878e-02, 7.134021196953736e-01, -6.397274113942554e-01, 1.097456283546454e+00
131, 2.275699973110000e-01, 4.255641591459208e-02, 7.160868711703064e-01, -6.337346625662803e-01, 1.094473622461168e+00
132, 2.409400045870000e-01, 4.323646548166525e-02, 7.188781237300115e-01, -6.275041881026530e-01, 1.091378542517588e+00
133, 2.545700073240000e-01, 4.387339518955312e-02, 7.216537295547938e-01, -6.213086393866211e-01, 1.088295204626676e+00
134, 2.684499919410000e-01, 4.446579624835322e-02, 7.243530295260081e-01, -6.152834162365891e-01, 1.085310991529102e+00
135, 2.825500071050000e-01, 4.501136565556546e-02, 7.269500705739116e-01, -6.094864496118045e-01, 1.082440943396464e+00
136, 2.968699932100000e-01, 4.550892957060908e-02, 7.294288416643214e-01, -6.039534784278540e-01, 1.079714126178944e+00
137, 3.113999962810000e-01, 4.595670446030901e-02, 7.317399708615767e-01, -5.987947078982663e-01, 1.077179639084334e+00
138, 3.261100053790000e-01, 4.635223996282015e-02, 7.338907631051997e-01, -5.939938323544649e-01, 1.074839240428815e+00
139, 3.409900069240000e-01, 4.669365727932620e-02, 7.360394601211363e-01, -5.891976336581779e-01, 1.072513179768086e+00
140, 3.560400009160000e-01, 4.697909105249225e-02, 7.384848900730476e-01, -5.837390846583759e-01, 1.069886490957490e+00
141, 3.712300062180000e-01, 4.720597776014472e-02, 7.414934577159492e-01, -5.770235318840420e-01, 1.066624049516642e+00
142, 3.865399956700000e-01, 4.737202771598127e-02, 7.451728483472712e-01, -5.688106063676983e-01, 1.062614345776604e+00
143, 4.019699990750000e-01, 4.747508877177269e-02, 7.494715816604773e-01, -5.592152195078631e-01, 1.057912771896263e+00
144, 4.174999892710000e-01, 4.751272919570212e-02, 7.543005205077618e-01, -5.484363381523175e-01, 1.052627743660276e+00
145, 4.331099987030000e-01, 4.748260539304097e-02, 7.595657601045468e-01, -5.366835711952080e-01, 1.046874428239635e+00
146, 4.487800002100000e-01, 4.738249432430042e-02, 7.651348449297836e-01, -5.242525782817331e-01, 1.040796107358883e+00
147, 4.645099937920000e-01, 4.721006544063208e-02, 7.708880610405026e-01, -5.114105780345926e-01, 1.034556165991350e+00
148, 4.802699983120000e-01, 4.696334887606501e-02, 7.767353149151364e-01, -4.983586720644277e-01, 1.028212284160915e+00
85, 4.473999887700000e-02, -3.354239907721390e-02, 9.577751679296302e-01, -9.425185729993249e-02, 8.386729371242975e-01
86, 3.844000026600000e-02, -3.145445771874254e-02, 9.845951396577383e-01, -3.438584897826281e-02, 8.109709795191742e-01
87, 3.260000050100000e-02, -2.929495769413352e-02, 1.014967809625118e+00, 3.341028934178128e-02, 7.796572223196327e-01
88, 2.723000012300000e-02, -2.706757868950511e-02, 1.049658535048996e+00, 1.108449443057936e-01, 7.438890115625026e-01
89, 2.232000045500000e-02, -2.476727410030998e-02, 1.089262427356177e+00, 1.992464896343233e-01, 7.027922760411111e-01
90, 1.789999939500000e-02, -2.240805224851483e-02, 1.134610118757774e+00, 3.004690150843174e-01, 6.553260968442246e-01
91, 1.394999958600000e-02, -1.997908481650188e-02, 1.186497781259128e+00, 4.162896903105530e-01, 6.000844288222306e-01
92, 1.049000024800000e-02, -1.749166091774277e-02, 1.244952995224381e+00, 5.467700786258514e-01, 5.354741405539923e-01
93, 7.519999985000000e-03, -1.494671448327603e-02, 1.309330612801593e+00, 6.904701178606995e-01, 4.599339738500549e-01
94, 5.040000193000000e-03, -1.234446994990244e-02, 1.377182236361969e+00, 8.419246347365390e-01, 3.712769181825716e-01
95, 3.049999941000000e-03, -9.683462163689613e-03, 1.443425644878683e+00, 9.897893858899182e-01, 2.683170187594975e-01
96, 1.560000004000000e-03, -6.979061586673629e-03, 1.495260185271412e+00, 1.105491484980829e+00, 1.524487386823627e-01
97, 5.600000150000000e-04, -4.210286689154421e-03, 1.523646659191798e+00, 1.168854149981692e+00, 2.345230811058087e-02
98, 5.999999800000000e-05, -1.384918553725218e-03, 1.507338716847222e+00, 1.132452492962549e+00, 1.109833711278821e-01
99, 0.000000000000000e+00, 0.000000000000000e+00, 1.462417157002180e+00, 1.032181154022724e+00, 2.146307054372169e-01
100, 5.999999800000000e-05, 1.264643002732218e-03, 1.420996025400780e+00, 9.397232709838841e-01, 3.133880379669049e-01
101, 5.600000150000000e-04, 3.628990670450893e-03, 1.321699361269201e+00, 7.180789314044660e-01, 4.609580469460070e-01
102, 1.560000004000000e-03, 5.796261131936027e-03, 1.150874606559445e+00, 3.367736753559047e-01, 6.255798284431080e-01
103, 3.049999941000000e-03, 7.817792789014047e-03, 1.014022926667338e+00, 3.130117559673601e-02, 7.598169966784826e-01
104, 5.040000193000000e-03, 9.738457137041403e-03, 9.088684920523111e-01, -2.034185445260912e-01, 8.663954302550815e-01
105, 7.519999985000000e-03, 1.156589508465527e-02, 8.324685597130287e-01, -3.739541077834181e-01, 9.486533814951424e-01
106, 1.049000024800000e-02, 1.331504613925062e-02, 7.805238877123249e-01, -4.899020363564175e-01, 1.008417342289067e+00
107, 1.394999958600000e-02, 1.499640165214150e-02, 7.463617882181796e-01, -5.661567227272778e-01, 1.049877326024211e+00
108, 1.789999939500000e-02, 1.661786976756719e-02, 7.234951160490919e-01, -6.171984016761342e-01, 1.078387193344066e+00
109, 2.232000045500000e-02, 1.817906337691191e-02, 7.080812776900297e-01, -6.516042908704694e-01, 1.097927762516670e+00
110, 2.723000012300000e-02, 1.969314955306456e-02, 6.977287004364088e-01, -6.747127222401590e-01, 1.111254915689776e+00
111, 3.260000050100000e-02, 2.115601139619322e-02, 6.908919714325202e-01, -6.899732780524102e-01, 1.120012531513508e+00
112, 3.844000026600000e-02, 2.257536728346345e-02, 6.867137444853517e-01, -6.992996774880542e-01, 1.125468145340056e+00
199, 1.000000000000000e+00, 0.000000000000000e+00, 1.279257591503658e+00, 6.233428381778079e-01, 4.554087372150818e-01
0, 9.997500181200000e-01, -3.633243334173069e-05, 1.290559468483681e+00, 6.485702421510741e-01, 4.935029649355448e-01
1, 9.990000128750000e-01, -1.454726771406607e-04, 1.264227817408011e+00, 5.897942352857389e-01, 5.210432299205928e-01
2, 9.977599978450000e-01, -3.275112098863658e-04, 1.248374302521351e+00, 5.544069252708737e-01, 5.397939681748406e-01
3, 9.960200190539999e-01, -5.899478873598722e-04, 1.238487831438445e+00, 5.323389094608150e-01, 5.516729522779040e-01
4, 9.937800168990000e-01, -9.471699304722737e-04, 1.231599643018776e+00, 5.169634888811963e-01, 5.595700676167533e-01
5, 9.910500049590000e-01, -1.422304718022004e-03, 1.224857951253573e+00, 5.019150697624405e-01, 5.673144928961813e-01
6, 9.878399968150000e-01, -2.045993611269611e-03, 1.214782161398127e+00, 4.794244674065343e-01, 5.779705714128257e-01
7, 9.841300249100000e-01, -2.854615189355942e-03, 1.198867864755004e+00, 4.439014838281333e-01, 5.945567285411069e-01
183, 9.375399947170000e-01, 5.273839324082675e-03, 1.144416797989858e+00, 3.223589240845036e-01, 6.493996521327684e-01
184, 9.449599981310000e-01, 4.417301212208015e-03, 1.155636675319955e+00, 3.474032931248995e-01, 6.378665752121545e-01
185, 9.519400000570000e-01, 3.723303496210717e-03, 1.162493342744092e+00, 3.627083543394906e-01, 6.310791553542122e-01
186, 9.584699869160000e-01, 3.197962705634843e-03, 1.163413750349485e+00, 3.647628356015286e-01, 6.306161325054198e-01
187, 9.645400047300000e-01, 2.821051864482201e-03, 1.157932137697376e+00, 3.525270930744993e-01, 6.367824338121950e-01
