"Global_Index", "x_coord", "y_coord", "Pressure", "Pressure_Coefficient", "Mach_Number"
149, 4.960500001910000e-01, 4.664898419290359e-02, 7.823725154110033e-01, -4.857756352432963e-01, 1.022139938425135e+00
150, 5.118399858470000e-01, 4.624943581504610e-02, 7.886846173851858e-01, -4.716861219080674e-01, 1.015348924483467e+00
151, 5.276100039480000e-01, 4.577049397478904e-02, 7.948872500844919e-01, -4.578409596328306e-01, 1.008735853710148e+00
152, 5.433599948880000e-01, 4.521047063192992e-02, 8.013793111906679e-01, -4.433497518065450e-01, 1.001850511056450e+00
153, 5.590599775310000e-01, 4.456900279324701e-02, 8.086248009196845e-01, -4.271767836614186e-01, 9.941904483469809e-01
154, 5.747100114820000e-01, 4.384496988392094e-02, 8.167153724458999e-01, -4.091174722189735e-01, 9.856380301151864e-01
155, 5.902799963950000e-01, 4.303901507305422e-02, 8.253496773251507e-01, -3.898444702563599e-01, 9.765206746958265e-01
156, 6.057599782940000e-01, 4.215141018095422e-02, 8.342229023708074e-01, -3.700381643508763e-01, 9.672044856289652e-01
157, 6.211299896240000e-01, 4.118353492100831e-02, 8.433511080334400e-01, -3.496627052824999e-01, 9.576383755212216e-01
158, 6.363800168040000e-01, 4.013678410989350e-02, 8.529497382087284e-01, -3.282371914983740e-01, 9.476289402400280e-01
159, 6.514999866490000e-01, 3.901310599859902e-02, 8.630950298179600e-01, -3.055914512991963e-01, 9.370783194083216e-01
160, 6.664699912070000e-01, 3.781585563901221e-02, 8.737167607902727e-01, -2.818822303788556e-01, 9.260774829153765e-01
161, 6.812700033190000e-01, 3.654924749615825e-02, 8.847052073256670e-01, -2.573544479337789e-01, 9.147302625008300e-01
162, 6.958900094030001e-01, 3.521742822065435e-02, 8.959939892826821e-01, -2.321562739225845e-01, 9.031145887860399e-01
163, 7.103199958800001e-01, 3.382520798375242e-02, 9.075697608835829e-01, -2.063174980277168e-01, 8.912415449647350e-01
164, 7.245299816130000e-01, 3.238014861583361e-02, 9.193947048610094e-01, -1.799225337923898e-01, 8.791475212424575e-01
165, 7.385200262070000e-01, 3.088759214283806e-02, 9.314512994139009e-01, -1.530104923796854e-01, 8.668509509833393e-01
166, 7.522799968720000e-01, 2.935448078453806e-02, 9.436756486692898e-01, -1.257239985060496e-01, 8.544056952074207e-01
167, 7.657799720760000e-01, 2.779071562848442e-02, 9.560328307890718e-01, -9.814100270296484e-02, 8.418723472417226e-01
168, 7.790099978450000e-01, 2.620467134263339e-02, 9.684473934719061e-01, -7.042992528592386e-02, 8.292551345810082e-01
169, 7.919700145720000e-01, 2.460399302471768e-02, 9.808917076933594e-01, -4.265243818446557e-02, 8.166547033059360e-01
170, 8.046399950980000e-01, 2.299920351084860e-02, 9.932603376367674e-01, -1.504388920364430e-02, 8.041445541777960e-01
171, 8.170099854470000e-01, 2.139994158888874e-02, 1.005448519536115e+00, 1.216187396454321e-02, 7.918000895999373e-01
172, 8.290500044819999e-01, 1.981855909257489e-02, 1.017348197265150e+00, 3.872365460970913e-02, 7.797680064325090e-01
173, 8.407700061800000e-01, 1.826184812064831e-02, 1.028842250082975e+00, 6.438002250663970e-02, 7.681502608050087e-01
174, 8.521599769590000e-01, 1.673825169240023e-02, 1.039859369142746e+00, 8.897180612219993e-02, 7.570166009528001e-01
175, 8.631799817090000e-01, 1.525860884579756e-02, 1.050366098073182e+00, 1.124243260562097e-01, 7.463954555367818e-01
176, 8.738499879840000e-01, 1.382340149398752e-02, 1.060432444790229e+00, 1.348938499781900e-01, 7.361932097352948e-01
177, 8.841500282290000e-01, 1.243585019816847e-02, 1.070308029561218e+00, 1.569375659848620e-01, 7.261630058795014e-01
178, 8.940600156780000e-01, 1.109715768992367e-02, 1.080382382757887e+00, 1.794249615131404e-01, 7.158568406047745e-01
179, 9.035800099370001e-01, 9.805634146234952e-03, 1.091206197124166e+00, 2.035852614378705e-01, 7.047311395251065e-01
180, 9.126999974250000e-01, 8.563984590454488e-03, 1.103228953928615e+00, 2.304217721620863e-01, 6.922744681468067e-01
181, 9.214000105860000e-01, 7.383154293068284e-03, 1.116578409297353e+00, 2.602196636101629e-01, 6.783913202865138e-01
182, 9.296900033950000e-01, 6.279705259346819e-03, 1.130699756549562e+00, 2.917405280124157e-01, 6.636614644891602e-01
31, 7.657799720760000e-01, -3.607192400281718e-02, 9.121372814238621e-01, -1.961221396788793e-01, 8.878343600409635e-01
32, 7.522799968720000e-01, -3.753745125195956e-02, 9.052461842253051e-01, -2.115040530685154e-01, 8.948729118551575e-01
33, 7.385200262070000e-01, -3.898259178428872e-02, 8.983405642685404e-01, -2.269183833291510e-01, 9.019414824266362e-01
34, 7.245299816130000e-01, -4.040147406350589e-02, 8.914906233584529e-01, -2.422084300034534e-01, 9.089676965453168e-01
35, 7.103199958800001e-01, -4.179046999531449e-02, 8.847623022779763e-01, -2.572270038438030e-01, 9.158822662135422e-01
36, 6.958900094030001e-01, -4.314701748993480e-02, 8.781761803378432e-01, -2.719281688887429e-01, 9.226744011352427e-01
37, 6.812700033190000e-01, -4.446592026284633e-02, 8.717439982291409e-01, -2.862857182385247e-01, 9.293148400369210e-01
38, 6.664699912070000e-01, -4.574417779437413e-02, 8.654781609910637e-01, -3.002719620735186e-01, 9.357958313104583e-01
39, 6.514999866490000e-01, -4.697901429117664e-02, 8.593958337620119e-01, -3.138485853526520e-01, 9.421093809908270e-01
40, 6.363800168040000e-01, -4.816711934879284e-02, 8.535033007587542e-01, -3.270015608063521e-01, 9.482285722151498e-01
41, 6.211299896240000e-01, -4.930558126295936e-02, 8.478041762034638e-01, -3.397228209744111e-01, 9.541734912701906e-01
42, 6.057599782940000e-01, -5.039254606441098e-02, 8.422844145722533e-01, -3.520437174726488e-01, 9.599308416495386e-01
43, 5.902799963950000e-01, -5.142637621195600e-02, 8.369548486365979e-01, -3.639400700075941e-01, 9.655155226767826e-01
44, 5.747100114820000e-01, -5.240501949589581e-02, 8.318460843225822e-01, -3.753435617799504e-01, 9.708635210164724e-01
45, 5.590599775310000e-01, -5.332731668724943e-02, 8.270138092613036e-01, -3.861298900417330e-01, 9.759457735566776e-01
46, 5.433599948880000e-01, -5.419117506428657e-02, 8.224525800692463e-01, -3.963112052025753e-01, 9.807405965432596e-01
47, 5.276100039480000e-01, -5.499640207772070e-02, 8.180626534063480e-01, -4.061101486465447e-01, 9.853889876835854e-01
48, 5.118399858470000e-01, -5.574135610595845e-02, 8.136614250412912e-01, -4.159343191042607e-01, 9.900507376479091e-01
49, 4.960500001910000e-01, -5.642597757684262e-02, 8.092235360434735e-01, -4.258403213315323e-01, 9.947869351963966e-01
50, 4.802699983120000e-01, -5.704892721417146e-02, 8.050349333205574e-01, -4.351898809808986e-01, 9.992417214488026e-01
51, 4.645099937920000e-01, -5.760980894793073e-02, 8.015543294171087e-01, -4.429590861225253e-01, 1.002938315655707e+00
52, 4.487800002100000e-01, -5.810815745090212e-02, 7.989386978322436e-01, -4.487975494815992e-01, 1.005678090776207e+00
53, 4.331099987030000e-01, -5.854289419308446e-02, 7.967862096866974e-01, -4.536022105207647e-01, 1.007931072665852e+00
54, 4.174999892710000e-01, -5.891378728734377e-02, 7.942032146092258e-01, -4.593678245329781e-01, 1.010680705929307e+00
55, 4.019699990750000e-01, -5.921994617568405e-02, 7.901854176449108e-01, -4.683361213283241e-01, 1.015065265523707e+00
56, 3.865399956700000e-01, -5.946048421226389e-02, 7.840908924788828e-01, -4.819399721453510e-01, 1.021773691214910e+00
57, 3.712300062180000e-01, -5.963451142812570e-02, 7.761322283430601e-01, -4.997048474485267e-01, 1.030582413636393e+00
58, 3.560400009160000e-01, -5.974123500362057e-02, 7.675107175931882e-01, -5.189492910866335e-01, 1.040095335163993e+00
59, 3.409900069240000e-01, -5.977950222664270e-02, 7.598703155053649e-01, -5.360037600326677e-01, 1.048498004640555e+00
60, 3.261100053790000e-01, -5.974821275612580e-02, 7.543433623704829e-01, -5.483407089944577e-01, 1.054546908252261e+00
61, 3.113999962810000e-01, -5.964620836786406e-02, 7.511615887263999e-01, -5.554428823071430e-01, 1.057975324433592e+00
62, 2.968699932100000e-01, -5.947213292395055e-02, 7.499407358660479e-01, -5.581680002990002e-01, 1.059257417169424e+00
63, 2.825500071050000e-01, -5.922489000730295e-02, 7.501259787409834e-01, -5.577545117388764e-01, 1.058981254066459e+00
64, 2.684499919410000e-01, -5.890319394481241e-02, 7.513017849622596e-01, -5.551299442806705e-01, 1.057648076666841e+00
65, 2.545700073240000e-01, -5.850536331498765e-02, 7.532309662755924e-01, -5.508237359919813e-01, 1.055469778805875e+00
66, 2.409400045870000e-01, -5.803053820737234e-02, 7.558363158096888e-01, -5.450082236390875e-01, 1.052575385619446e+00
67, 2.275699973110000e-01, -5.747743433466368e-02, 7.590270607357507e-01, -5.378860251434138e-01, 1.049025401156095e+00
68, 2.144699990750000e-01, -5.684476199819095e-02, 7.626794952636444e-01, -5.297332695007937e-01, 1.044997456346680e+00
69, 2.016600072380000e-01, -5.613183946499747e-02, 7.666622217866776e-01, -5.208432549404517e-01, 1.040602873080753e+00
70, 1.891400069000000e-01, -5.533698712365691e-02, 7.709907801300779e-01, -5.111812943525046e-01, 1.035856747409655e+00
71, 1.769299954180000e-01, -5.445978491771193e-02, 7.758927726133934e-01, -5.002393468451041e-01, 1.030478262519797e+00
72, 1.650400012730000e-01, -5.349939307599512e-02, 7.816856394302703e-01, -4.873088405574325e-01, 1.024151591857889e+00
73, 1.534900069240000e-01, -5.245603601137142e-02, 7.884752256391265e-01, -4.721535141983783e-01, 1.016742043191507e+00
74, 1.422899961470000e-01, -5.132943186948592e-02, 7.961517583999531e-01, -4.550183964286761e-01, 1.008423783427722e+00
75, 1.314399987460000e-01, -5.011831996582183e-02, 8.045536538044780e-01, -4.362641656150046e-01, 9.993156328367538e-01
76, 1.209499984980000e-01, -4.882245017152336e-02, 8.137412278548426e-01, -4.157561878240121e-01, 9.894461289589325e-01
77, 1.108499988910000e-01, -4.744461106981140e-02, 8.239588919805831e-01, -3.929489018290555e-01, 9.785642317364635e-01
78, 1.011300012470000e-01, -4.598262584813981e-02, 8.353295589985269e-01, -3.675679486640024e-01, 9.664587173512432e-01
79, 9.181000292300000e-02, -4.443860830011519e-02, 8.479193990606029e-01, -3.394656270968686e-01, 9.530732934101783e-01
80, 8.290000259900000e-02, -4.281367699973521e-02, 8.618620899220216e-01, -3.083435492812017e-01, 9.383654604354269e-01
81, 7.440000027400000e-02, -4.110718751462507e-02, 8.772756527641087e-01, -2.739382750801145e-01, 9.221751986177832e-01
82, 6.633000075800000e-02, -3.932267925328512e-02, 8.943735388129705e-01, -2.357733508639050e-01, 9.043312156949015e-01
83, 5.869000032500000e-02, -3.745985132580149e-02, 9.133554013031497e-01, -1.934031220911836e-01, 8.846104166780729e-01
84, 5.149000138000000e-02, -3.552072267316082e-02, 9.345197850581834e-01, -1.461611940665548e-01, 8.627037659384833e-01
113, 4.473999887700000e-02, 2.392221532953104e-02, 6.845473247263660e-01, -7.041354358786472e-01, 1.128385712262787e+00
114, 5.149000138000000e-02, 2.525823001199290e-02, 6.832846368705223e-01, -7.069539355568698e-01, 1.130164156543350e+00
115, 5.869000032500000e-02, 2.655676437436630e-02, 6.831561865358343e-01, -7.072406550539413e-01, 1.130597301346389e+00
116, 6.633000075800000e-02, 2.781854704996429e-02, 6.840271054727960e-01, -7.052966395696518e-01, 1.129762649336958e+00
117, 7.440000027400000e-02, 2.904424331503931e-02, 6.855917358799216e-01, -7.018041609823178e-01, 1.128041493644900e+00
118, 8.290000259900000e-02, 3.023576737713726e-02, 6.874112157216293e-01, -6.977428220499345e-01, 1.126046494894442e+00
119, 9.181000292300000e-02, 3.139201928216372e-02, 6.890768302354305e-01, -6.940249325101997e-01, 1.124241987792341e+00
120, 1.011300012470000e-01, 3.251450737519118e-02, 6.905999695155181e-01, -6.906250680457187e-01, 1.122641403469091e+00
121, 1.108499988910000e-01, 3.360320092411449e-02, 6.923894702775770e-01, -6.866306467018370e-01, 1.120772059103649e+00
122, 1.209499984980000e-01, 3.465696878493409e-02, 6.947975157473434e-01, -6.812555452068229e-01, 1.118158173611984e+00
123, 1.314399987460000e-01, 3.567766836257996e-02, 6.976601159763773e-01, -6.748658125527291e-01, 1.114923630694224e+00
124, 1.422899961470000e-01, 3.666301151616121e-02, 7.004432318388739e-01, -6.686535003596564e-01, 1.111768883340173e+00
125, 1.534900069240000e-01, 3.761273488729715e-02, 7.028470492417649e-01, -6.632878365139177e-01, 1.109066045090676e+00
126, 1.650400012730000e-01, 3.852720113850198e-02, 7.049790795293691e-01, -6.585288403362297e-01, 1.106712443178139e+00
127, 1.769299954180000e-01, 3.940572469546770e-02, 7.070387204491715e-01, -6.539314275688136e-01, 1.104440848324890e+00
128, 1.891400069000000e-01, 4.024683778799985e-02, 7.091518279443473e-01, -6.492146697670820e-01, 1.102121688114770e+00
129, 2.016600072380000e-01, 4.104975134180931e-02, 7.114166766778186e-01, -6.441592038441549e-01, 1.099618993317858e+00
130, 2.144699990750000e-01, 4.181296535966937e-02, 7.138976172651357e-01, -6.386213900331793e-01, 1.096878701780629e+00
131, 2.275699973110000e-01, 4.253607134539106e-02, 7.165811678852673e-01, -6.326313216846713e-01, 1.093898920903542e+00
132, 2.409400045870000e-01, 4.321736082844456e-02, 7.193689605876286e-01, -6.264085701169005e-01, 1.090809218499413e+00
133, 2.545700073240000e-01, 4.385558564758677e-02, 7.221380163667488e-01, -6.202276420385072e-01, 1.087734608393694e+00
134, 2.684499919410000e-01, 4.444933807959004e-02, 7.248259818928687e-01, -6.142277189891323e-01, 1.084764278878642e+00
135, 2.825500071050000e-01, 4.499631391163877e-02, 7.274047189111169e-01, -6.084716095733997e-01, 1.081915880154029e+00
136, 2.968699932100000e-01, 4.549534051646029e-02, 7.298571687902536e-01, -6.029973910931838e-01, 1.079219541999508e+00
137, 3.113999962810000e-01, 4.594463395708675e-02, 7.321356498686166e-01, -5.979114958289808e-01, 1.076722526039206e+00
138, 3.261100053790000e-01, 4.634174046489341e-02, 7.342480712737831e-01, -5.931962694781627e-01, 1.074424464218709e+00
139, 3.409900069240000e-01, 4.668477887740120e-02, 7.363432799318689e-01, -5.885194644377927e-01, 1.072156137860887e+00
140, 3.560400009160000e-01, 4.697188150326893e-02, 7.386894214024327e-01, -5.832825415124271e-01, 1.069635026891999e+00
141, 3.712300062180000e-01, 4.720047797587597e-02, 7.415027747084860e-01, -5.770027350257009e-01, 1.066583990093900e+00
142, 3.865399956700000e-01, 4.736827156172671e-02, 7.448474738376176e-01, -5.695368887553178e-01, 1.062941946965301e+00
143, 4.019699990750000e-01, 4.747310412151739e-02, 7.486794434944096e-01, -5.609833850571214e-01, 1.058759533417610e+00
144, 4.174999892710000e-01, 4.751253445393077e-02, 7.530024897936246e-01, -5.513337281392308e-01, 1.054042877623623e+00
145, 4.331099987030000e-01, 4.748420837195663e-02, 7.578942662411364e-01, -5.404145842831777e-01, 1.048714985654040e+00
146, 4.487800002100000e-01, 4.738589126107798e-02, 7.633976177330487e-01, -5.281303175601592e-01, 1.042719062638458e+00
147, 4.645099937920000e-01, 4.721524246783846e-02, 7.694604643980490e-01, -5.145971776829262e-01, 1.036140831891038e+00
148, 4.802699983120000e-01, 4.697027799612130e-02, 7.758791170627709e-01, -5.002698279848864e-01, 1.029161271871382e+00
85, 4.473999887700000e-02, -3.350781566922352e-02, 9.583033209950945e-01, -9.307294420737830e-02, 8.381373456754677e-01
86, 3.844000026600000e-02, -3.142081989852793e-02, 9.850923585079400e-01, -3.327598547334829e-02, 8.104688041773216e-01
87, 3.260000050100000e-02, -2.926257994246457e-02, 1.015424209608897e+00, 3.442903930557468e-02, 7.791972752614772e-01
88, 2.723000012300000e-02, -2.703678497089441e-02, 1.050063124276369e+00, 1.117480452597521e-01, 7.434806563182602e-01
89, 2.232000045500000e-02, -2.473840061614505e-02, 1.089604186145557e+00, 2.000093440749045e-01, 7.024446564008990e-01
90, 1.789999939500000e-02, -2.238142612967921e-02, 1.134879027346930e+00, 3.010692574708270e-01, 6.550471616382647e-01
91, 1.394999958600000e-02, -1.995503953716010e-02, 1.186687290538140e+00, 4.167127020940626e-01, 5.998794142742626e-01
92, 1.049000024800000e-02, -1.747050570054853e-02, 1.245064336119921e+00, 5.470186074105369e-01, 5.353430739478112e-01
93, 7.519999985000000e-03, -1.492873184989167e-02, 1.309375259671134e+00, 6.905697760516376e-01, 4.598689392902885e-01
94, 5.040000193000000e-03, -1.232989987184495e-02, 1.377181885785740e+00, 8.419238522003122e-01, 3.712575102303233e-01
95, 3.049999941000000e-03, -9.672478956702660e-03, 1.443417351685554e+00, 9.897708742981111e-01, 2.683058571138827e-01
96, 1.560000004000000e-03, -6.971709143757004e-03, 1.495269615955093e+00, 1.105512535614047e+00, 1.523999429849861e-01
97, 5.600000150000000e-04, -4.206447035887109e-03, 1.523657477924812e+00, 1.168878298939313e+00, 2.331669327071733e-02
98, 5.999999800000000e-05, -1.384059184399555e-03, 1.507273496002896e+00, 1.132306910720751e+00, 1.112491546074473e-01
99, 0.000000000000000e+00, 0.000000000000000e+00, 1.462217353080782e+00, 1.031735163126746e+00, 2.150427880264677e-01
100, 5.999999800000000e-05, 1.263761789417389e-03, 1.420654753947403e+00, 9.389615043468823e-01, 3.139342042858679e-01
101, 5.600000150000000e-04, 3.625154089288640e-03, 1.321096511133017e+00, 7.167332837790560e-01, 4.616812049569315e-01
102, 1.560000004000000e-03, 5.789052932808108e-03, 1.149947255542101e+00, 3.347036954064752e-01, 6.264668628989943e-01
103, 3.049999941000000e-03, 7.807198193539289e-03, 1.013007485495137e+00, 2.903456583736030e-02, 7.607267479132447e-01
104, 5.040000193000000e-03, 9.724605946982885e-03, 9.079591164106301e-01, -2.054484008691292e-01, 8.672193555970823e-01
105, 7.519999985000000e-03, 1.154902489189233e-02, 8.317681383855520e-01, -3.755175482465358e-01, 9.493182173672954e-01
106, 1.049000024800000e-02, 1.329543894691211e-02, 7.800471640476485e-01, -4.909661516793560e-01, 1.008884385924913e+00
107, 1.394999958600000e-02, 1.497436132951371e-02, 7.460764249112696e-01, -5.667936943944876e-01, 1.050154760801785e+00
108, 1.789999939500000e-02, 1.659370726929401e-02, 7.233697818609277e-01, -6.174781654890007e-01, 1.078493182663843e+00
109, 2.232000045500000e-02, 1.815309390299960e-02, 7.080883011177131e-01, -6.515886135765332e-01, 1.097884560476909e+00
110, 2.723000012300000e-02, 1.966566799699704e-02, 6.978438256946868e-01, -6.744557462172169e-01, 1.111086324785980e+00
111, 3.260000050100000e-02, 2.112730542696099e-02, 6.910945139437372e-01, -6.895211742327294e-01, 1.119741570593538e+00
112, 3.844000026600000e-02, 2.254570174917952e-02, 6.869861402436875e-01, -6.986916512417689e-01, 1.125115270151065e+00
199, 1.000000000000000e+00, 0.000000000000000e+00, 1.279255473429883e+00, 6.233381103345605e-01, 4.554091364689142e-01
0, 9.997500181200000e-01, -3.633242804077512e-05, 1.290549160061306e+00, 6.485472322797002e-01, 4.935180051648441e-01
1, 9.990000128750000e-01, -1.454723422608262e-04, 1.264206773237799e+00, 5.897472616915153e-01, 5.210697917773340e-01
2, 9.977599978450000e-01, -3.275075334427447e-04, 1.248339515456108e+00, 5.543292755716694e-01, 5.398352090312186e-01
3, 9.960200190539999e-01, -5.899280051132869e-04, 1.238437283156512e+00, 5.322260784743572e-01, 5.517309252775431e-01
4, 9.937800168990000e-01, -9.470979254931201e-04, 1.231533243792442e+00, 5.168152763224142e-01, 5.596450021247965e-01
5, 9.910500049590000e-01, -1.422105037602664e-03, 1.224778127758311e+00, 5.017368923176594e-01, 5.674035036448707e-01
6, 9.878399968150000e-01, -2.045537577110312e-03, 1.214693993774246e+00, 4.792276646746553e-01, 5.780681422555278e-01
7, 9.841300249100000e-01, -2.853715097189288e-03, 1.198778647468152e+00, 4.437023380985538e-01, 5.946550638743836e-01
183, 9.375399947170000e-01, 5.284601411451978e-03, 1.144303697983839e+00, 3.221064687139259e-01, 6.495106724904512e-01
184, 9.449599981310000e-01, 4.426987075286876e-03, 1.155527139272185e+00, 3.471587930182708e-01, 6.379739063858358e-01
185, 9.519400000570000e-01, 3.731779178767282e-03, 1.162393715547224e+00, 3.624859722036258e-01, 6.311754714227067e-01
186, 9.584699869160000e-01, 3.205093962117685e-03, 1.163333568338226e+00, 3.645838578978269e-01, 6.306909302009692e-01
187, 9.645400047300000e-01, 2.826753739193744e-03, 1.157882996500735e+00, 3.524174029034271e-01, 6.368236388449204e-01
