"PointID"	"x"	"y"	"Conservative_1"	"Conservative_2"	"Conservative_3"	"Conservative_4"	"Pressure"	"Temperature"	"Pressure_Coefficient"	"Mach"
0	9.997500181200000e-01	-3.633242841412071e-05	1.199829360543162e+00	7.195735127688032e-01	1.010184461814029e-01	3.446402291095460e+00	1.290549940192642e+00	1.075611234924616e+00	6.485489736442895e-01	4.935168622096290e-01	
1	9.990000128750000e-01	-1.454723658461850e-04	1.181605046397540e+00	7.459478408322892e-01	1.066666433363588e-01	3.400793941165547e+00	1.264208312922677e+00	1.069907679200404e+00	5.897506984881186e-01	5.210678622673296e-01	
2	9.977599978450000e-01	-3.275077923684687e-04	1.171181619472865e+00	7.640370930429536e-01	1.128620048727673e-01	3.375508327831188e+00	1.248342014019609e+00	1.065882518359085e+00	5.543348527223417e-01	5.398322603624226e-01	
3	9.960200190539999e-01	-5.899294053540300e-04	1.164743427661509e+00	7.748446233660683e-01	1.197583635341154e-01	3.359991338602893e+00	1.238440884059654e+00	1.063273554199065e+00	5.322341162045856e-01	5.517268111745874e-01	
4	9.937800168990000e-01	-9.471029963878956e-04	1.160171532488533e+00	7.807345913799061e-01	1.301723545736511e-01	3.348844328895368e+00	1.231537952813603e+00	1.061513679940062e+00	5.168257875303649e-01	5.596397025679596e-01	
5	9.910500049590000e-01	-1.422119099230602e-03	1.155707376683555e+00	7.855063318087540e-01	1.447886492072936e-01	3.337973922634079e+00	1.224783775489919e+00	1.059769800037608e+00	5.017494988614272e-01	5.673972202662402e-01	
6	9.878399968150000e-01	-2.045569689070388e-03	1.148823330570260e+00	7.913108951917900e-01	1.632608316027261e-01	3.320879113228813e+00	1.214700222202686e+00	1.057342926348585e+00	4.792415674167106e-01	5.780612636450889e-01	
7	9.841300249100000e-01	-2.853778471647583e-03	1.137905606640679e+00	8.009753943880422e-01	1.836756781753160e-01	3.293690983028703e+00	1.198784942316559e+00	1.053501217781682e+00	4.437163890994623e-01	5.946481390248797e-01	
8	9.799500107769999e-01	-3.859065696601993e-03	1.121723695190447e+00	8.159850847768253e-01	2.028846998284678e-01	3.253317351867459e+00	1.175272037381017e+00	1.047737551074446e+00	3.912322262969141e-01	6.189159209039535e-01	
9	9.752799868580000e-01	-5.058591677385953e-03	1.100367377835477e+00	8.363932841878871e-01	2.169655522450897e-01	3.199985263659751e+00	1.144288923406558e+00	1.039915346870314e+00	3.220734897467815e-01	6.508057079708682e-01	
10	9.701499938960000e-01	-6.405534912920711e-03	1.075076407464522e+00	8.604841027845680e-01	2.227355322714233e-01	3.136713839215687e+00	1.107711050338866e+00	1.030355649745222e+00	2.404264516492537e-01	6.883807454964525e-01	
11	9.645400047300000e-01	-7.841413541173594e-03	1.048462388478115e+00	8.849298682406131e-01	2.186175005559136e-01	3.069892776019584e+00	1.069459391770593e+00	1.020026472597607e+00	1.550432852022176e-01	7.275290558393580e-01	
12	9.584699869160000e-01	-9.290879474520267e-03	1.024891800218610e+00	9.060869958011019e-01	2.055776845415562e-01	3.010537800291555e+00	1.035757175940037e+00	1.010601485658397e+00	7.981512486615308e-02	7.621452671989888e-01	
13	9.519400000570000e-01	-1.069856828747182e-02	1.008354530398901e+00	9.215742703136396e-01	1.874106329207154e-01	2.968874508836293e+00	1.012130969310410e+00	1.003745149942467e+00	2.707805649645020e-02	7.867572212077006e-01	
14	9.449599981310000e-01	-1.203652625250857e-02	9.999791173870488e-01	9.308022805334294e-01	1.688419176105190e-01	2.947802143083492e+00	1.000137023865554e+00	1.000157909776074e+00	3.058568427540384e-04	7.994625687458080e-01	
15	9.375399947170000e-01	-1.330915009290884e-02	9.979200883344282e-01	9.347661115548312e-01	1.535399626472365e-01	2.942611843983452e+00	9.971982320602993e-01	9.992766391993035e-01	-6.253946293974690e-03	8.025668851759051e-01	
16	9.296900033950000e-01	-1.454375193245324e-02	9.990291535835766e-01	9.355207375945366e-01	1.431431401510663e-01	2.945357554460150e+00	9.988311356736607e-01	9.998017896582845e-01	-2.609072157007447e-03	8.007178088792873e-01	
17	9.214000105860000e-01	-1.577861591103719e-02	1.000471728181793e+00	9.351603860549182e-01	1.374108585214037e-01	2.948915067831163e+00	1.000968938075365e+00	1.000496975456243e+00	2.162808203939286e-03	7.982664410398576e-01	
18	9.126999974250000e-01	-1.704099516969802e-02	1.000498692396010e+00	9.351441703409632e-01	1.349914458844468e-01	2.948889235390793e+00	1.001101226085646e+00	1.000602233360439e+00	2.458093941173118e-03	7.978949213148576e-01	
19	9.035800099370001e-01	-1.835192332816371e-02	9.985097954314123e-01	9.360837717202838e-01	1.342526543222418e-01	2.943757502213498e+00	9.983807515169265e-01	9.998707634966868e-01	-3.614393935431892e-03	8.004747770032427e-01	
20	8.940600156780000e-01	-1.971504541918630e-02	9.947255694303596e-01	9.380327997686427e-01	1.338985342576813e-01	2.934083609644490e+00	9.931144387150390e-01	9.983803264288833e-01	-1.536955643964505e-02	8.057175101672979e-01	
21	8.841500282290000e-01	-2.112574901910303e-02	9.897032442236726e-01	9.406902538886994e-01	1.331655060363932e-01	2.921267296853013e+00	9.861025038770014e-01	9.963617979756190e-01	-3.102119670312192e-02	8.127886425278138e-01	
22	8.738499879840000e-01	-2.257582681804910e-02	9.840281855095850e-01	9.436804030206054e-01	1.317680999973308e-01	2.906779196154143e+00	9.781853511488108e-01	9.940623302799521e-01	-4.869341261426166e-02	8.208042111363542e-01	
23	8.631799817090000e-01	-2.405317653291252e-02	9.781720844469507e-01	9.467128810619272e-01	1.297339331110060e-01	2.891813512316270e+00	9.700310211698333e-01	9.916772688501737e-01	-6.689504203162208e-02	8.290749617273877e-01	
24	8.521599769590000e-01	-2.554713984881514e-02	9.724126327323765e-01	9.496009865690196e-01	1.272313085724310e-01	2.877071714270474e+00	9.620343799422055e-01	9.893273159553584e-01	-8.474468762900551e-02	8.371824850129590e-01	
25	8.407700061800000e-01	-2.705455927700512e-02	9.668606641245524e-01	9.522789623199208e-01	1.244597642933295e-01	2.862838907127863e+00	9.543478952526958e-01	9.870583535599866e-01	-1.019020195252326e-01	8.449728867980131e-01	
26	8.290500044819999e-01	-2.856619036798664e-02	9.615075285995418e-01	9.547418799670466e-01	1.215529031871302e-01	2.849093283965949e+00	9.469592246305045e-01	9.848692771129656e-01	-1.183945878783381e-01	8.524550932305018e-01	
27	8.170099854470000e-01	-3.007819003764520e-02	9.563066121654776e-01	9.570317456386832e-01	1.185998879275562e-01	2.835723133535072e+00	9.397960472087926e-01	9.827350718413438e-01	-1.343838231946593e-01	8.597187432379142e-01	
28	8.046399950980000e-01	-3.158973620471558e-02	9.511932754351128e-01	9.591590329804204e-01	1.156265231905842e-01	2.822557870133592e+00	9.327737490054621e-01	9.806353483510228e-01	-1.500585959699508e-01	8.668361098550514e-01	
29	7.919700145720000e-01	-3.309517532829742e-02	9.461360840808598e-01	9.611560372340476e-01	1.126204938113562e-01	2.809521209001106e+00	9.258445079536293e-01	9.785532161085021e-01	-1.655256518892204e-01	8.738663987120782e-01	
30	7.790099978450000e-01	-3.459124571368067e-02	9.411189916978951e-01	9.630577896866008e-01	1.095705091505487e-01	2.796579354334168e+00	9.189787730784275e-01	9.764745809884001e-01	-1.808509529499387e-01	8.808584612590434e-01	
31	7.657799720760000e-01	-3.607333054336491e-02	9.360982266237976e-01	9.648564932629385e-01	1.064560265083032e-01	2.783612135281281e+00	9.121239005262433e-01	9.743890914268455e-01	-1.961520077539213e-01	8.878478674076375e-01	
32	7.522799968720000e-01	-3.753887212309274e-02	9.310397899481315e-01	9.665664816045947e-01	1.032656077509253e-01	2.770532644278815e+00	9.052325708822156e-01	9.722812930827012e-01	-2.115344399950544e-01	8.948866789498627e-01	
33	7.385200262070000e-01	-3.898402308933419e-02	9.259601376808574e-01	9.681854630132297e-01	9.999182822325690e-02	2.757383915228395e+00	8.983267321815602e-01	9.701570247197605e-01	-2.269492585233031e-01	9.019555077698594e-01	
34	7.245299816130000e-01	-4.040291173056161e-02	9.209105444354775e-01	9.697008013244827e-01	9.662066299240549e-02	2.744298147047348e+00	8.914765998886781e-01	9.680382153026141e-01	-2.422397323913435e-01	9.089819510756942e-01	
35	7.103199958800001e-01	-4.179190981109096e-02	9.159393649222576e-01	9.711004167174986e-01	9.316700547249292e-02	2.731400321783909e+00	8.847480951433302e-01	9.659461412256535e-01	-2.572587161979237e-01	9.158967380729373e-01	
36	6.958900094030001e-01	-4.314845512757694e-02	9.110652506101610e-01	9.723988559384278e-01	8.962731585275310e-02	2.718743606779456e+00	8.781617030073670e-01	9.638845323309637e-01	-2.719604843585559e-01	9.226891809804310e-01	
37	6.812700033190000e-01	-4.446735133561004e-02	9.062927124834161e-01	9.735772026875525e-01	8.602004312595178e-02	2.706333936070802e+00	8.717292715238568e-01	9.618628281089796e-01	-2.863185903485339e-01	9.293298896039556e-01	
38	6.664699912070000e-01	-4.574559792270441e-02	9.016332449602062e-01	9.746455800941543e-01	8.235158649906785e-02	2.694204225648052e+00	8.654632974828522e-01	9.598839686984366e-01	-3.003051395472049e-01	9.358110464222995e-01	
39	6.514999866490000e-01	-4.698041917431586e-02	8.971033158931955e-01	9.756193611801168e-01	7.863392034635085e-02	2.682402315257192e+00	8.593809706247960e-01	9.579509465631155e-01	-3.138817619982232e-01	9.421246430622905e-01	
40	6.363800168040000e-01	-4.816850485866823e-02	8.927027534491718e-01	9.764794363292101e-01	7.488023790460061e-02	2.670921149214610e+00	8.534886162224571e-01	9.560725705446732e-01	-3.270343387891583e-01	9.482436811408216e-01	
41	6.211299896240000e-01	-4.930694353898671e-02	8.884419928307049e-01	9.772608106591320e-01	7.109743859283284e-02	2.659798507746154e+00	8.477896961345642e-01	9.542431615972852e-01	-3.397551425567763e-01	9.541884375906285e-01	
42	6.057599782940000e-01	-5.039388159126406e-02	8.843034544553777e-01	9.779370841959677e-01	6.730403822262131e-02	2.648979051202116e+00	8.422701185992157e-01	9.524672942931687e-01	-3.520756281267506e-01	9.599456313169165e-01	
43	5.902799963950000e-01	-5.142768190639686e-02	8.803038308555480e-01	9.785453209686099e-01	6.350151061207911e-02	2.638517712795175e+00	8.369408344134616e-01	9.507408750000069e-01	-3.639713517556661e-01	9.655300242895994e-01	
44	5.747100114820000e-01	-5.240629281327749e-02	8.764581173627641e-01	9.790529240093246e-01	5.969740807376659e-02	2.628443017961615e+00	8.318325673479152e-01	9.490842184802560e-01	-3.753737335984035e-01	9.708775161662315e-01	
45	5.590599775310000e-01	-5.332855568406460e-02	8.728179754750890e-01	9.795008068284874e-01	5.588311662968602e-02	2.618903205853876e+00	8.270010325877623e-01	9.475068752309007e-01	-3.861584094023164e-01	9.759590168687804e-01	
46	5.433599948880000e-01	-5.419237851673197e-02	8.693728550759863e-01	9.798662706983672e-01	5.206239753411353e-02	2.609862116410991e+00	8.224407137708389e-01	9.460160953598614e-01	-3.963376924758060e-01	9.807528989048063e-01	
47	5.276100039480000e-01	-5.499756947712704e-02	8.660587056142636e-01	9.802014004848363e-01	4.824735580345545e-02	2.601166846788451e+00	8.180516560862293e-01	9.445683656121390e-01	-4.061346962360953e-01	9.854004076368517e-01	
48	5.118399858470000e-01	-5.574248777623492e-02	8.627282281651311e-01	9.804743311206934e-01	4.446154068163435e-02	2.592418639713466e+00	8.136510716202888e-01	9.431140016720904e-01	-4.159574294189982e-01	9.900615115254713e-01	
49	4.960500001910000e-01	-5.642707464214985e-02	8.593719001933443e-01	9.807242195082497e-01	4.070926666966326e-02	2.583605051057340e+00	8.092137814251091e-01	9.416339785406642e-01	-4.258620950332386e-01	9.947970807865762e-01	
50	4.802699983120000e-01	-5.704999168495861e-02	8.561921319174559e-01	9.808920587628128e-01	3.695426704606217e-02	2.575239150271294e+00	8.050258859588640e-01	9.402397615544491e-01	-4.352100759846785e-01	9.992511324931227e-01	
51	4.645099937920000e-01	-5.761084367930660e-02	8.535429769304069e-01	9.810048971498422e-01	3.313969904920641e-02	2.568259758522880e+00	8.015463554178457e-01	9.390814254022025e-01	-4.429768852280230e-01	1.002946580921211e+00	
52	4.487800002100000e-01	-5.810916613261109e-02	8.515384655276792e-01	9.810476432435409e-01	2.924310107002731e-02	2.562959882529132e+00	7.989323680813216e-01	9.382222887444567e-01	-4.488116783899071e-01	1.005684579805894e+00	
53	4.331099987030000e-01	-5.854388134977420e-02	8.498868874065547e-01	9.810771064763253e-01	2.525148571600587e-02	2.558589625846438e+00	7.967821766192655e-01	9.375155546294650e-01	-4.536112129034252e-01	1.007935079445393e+00	
54	4.174999892710000e-01	-5.891475818655788e-02	8.479156523927416e-01	9.811125121208001e-01	2.119699931325016e-02	2.553387065642398e+00	7.942022618474481e-01	9.366524366029582e-01	-4.593699512333747e-01	1.010681337902884e+00	
55	4.019699990750000e-01	-5.922090679644394e-02	8.448731560943448e-01	9.811862357741241e-01	1.712357151056967e-02	2.545389537283427e+00	7.901879503819202e-01	9.352740641385490e-01	-4.683304678974995e-01	1.015062067000011e+00	
56	3.865399956700000e-01	-5.946144116095534e-02	8.402586627639304e-01	9.812251594666037e-01	1.307627367032200e-02	2.533263046927293e+00	7.840963227065133e-01	9.331606533246827e-01	-4.819278511015328e-01	1.021767325512867e+00	
57	3.712300062180000e-01	-5.963547183891446e-02	8.342185380485881e-01	9.811485357553335e-01	9.042152025992622e-03	2.517374181073039e+00	7.761386401114410e-01	9.303780780597276e-01	-4.996905354655336e-01	1.030575024564235e+00	
58	3.560400009160000e-01	-5.974220644483309e-02	8.276311311840537e-01	9.808248117383572e-01	4.913725774493794e-03	2.499990234851954e+00	7.675153619397456e-01	9.273640550974646e-01	-5.189389242416393e-01	1.040090017542900e+00	
59	3.409900069240000e-01	-5.978049258858867e-02	8.217539003972415e-01	9.803292939633081e-01	5.542987115136523e-04	2.484430924062504e+00	7.598712390346668e-01	9.246944111458918e-01	-5.360016985833330e-01	1.048496877422744e+00	
60	3.261100053790000e-01	-5.974923009827809e-02	8.174750848220437e-01	9.798249220338224e-01	-4.072992549636273e-03	2.473069160547227e+00	7.543401465605649e-01	9.227683639126172e-01	-5.483478871415962e-01	1.054550404296060e+00	
61	3.113999962810000e-01	-5.964726083579965e-02	8.149888798454461e-01	9.794111780259399e-01	-8.946602237964511e-03	2.466438874173306e+00	7.511548412258673e-01	9.216749575384586e-01	-5.554579436922605e-01	1.057982733910022e+00	
62	2.968699932100000e-01	-5.947322861722981e-02	8.140231227744592e-01	9.791611117881313e-01	-1.405513102129184e-02	2.463849595117486e+00	7.499312901527370e-01	9.212653414521249e-01	-5.581890844804979e-01	1.059267794524091e+00	
63	2.825500071050000e-01	-5.922603677670785e-02	8.141447559849915e-01	9.790095415194146e-01	-1.938714735005282e-02	2.464146668739149e+00	7.501144262978194e-01	9.213526474051843e-01	-5.577802984423673e-01	1.058993929728702e+00	
64	2.684499919410000e-01	-5.890439930697856e-02	8.150436096884787e-01	9.789570608809797e-01	-2.498087882736050e-02	2.466521393409517e+00	7.512883953611256e-01	9.217769287808771e-01	-5.551598317832018e-01	1.057662760288597e+00	
65	2.545700073240000e-01	-5.850663437482630e-02	8.165203800415940e-01	9.789130784289627e-01	-3.086438030524928e-02	2.470424325917271e+00	7.532157846877979e-01	9.224702813289595e-01	-5.508576234647368e-01	1.055486418392181e+00	
66	2.409400045870000e-01	-5.803188138731416e-02	8.185255742428263e-01	9.789002914099861e-01	-3.709397880899936e-02	2.475737393298787e+00	7.558192673756463e-01	9.233911452000921e-01	-5.450462781793609e-01	1.052594063117138e+00	
67	2.275699973110000e-01	-5.747885532873884e-02	8.209754366834043e-01	9.788470064841425e-01	-4.368653112695055e-02	2.482220776812431e+00	7.590079941631748e-01	9.245197362169970e-01	-5.379285844571992e-01	1.049046274497590e+00	
68	2.144699990750000e-01	-5.684626565271113e-02	8.237837922142689e-01	9.787667398735749e-01	-5.067563236925898e-02	2.489657988564611e+00	7.626582307549860e-01	9.257990239223064e-01	-5.297807349219064e-01	1.045020715166025e+00	
69	2.016600072380000e-01	-5.613342959412196e-02	8.268380610239189e-01	9.785922798619404e-01	-5.808123911586025e-02	2.497735915700629e+00	7.666386229264573e-01	9.271931942478396e-01	-5.208959309677291e-01	1.040628647081114e+00	
70	1.891400069000000e-01	-5.533866653149223e-02	8.301575371003275e-01	9.783372441700386e-01	-6.595030792982978e-02	2.506515032592665e+00	7.709648694043326e-01	9.286970664595183e-01	-5.112391307939004e-01	1.035884989688110e+00	
71	1.769299954180000e-01	-5.446155515758071e-02	8.339053720523981e-01	9.779478086402319e-01	-7.434697818710181e-02	2.516411661288381e+00	7.758647741375400e-01	9.303990598213689e-01	-5.003018434429912e-01	1.030508696558911e+00	
72	1.650400012730000e-01	-5.350125442217372e-02	8.383286090961072e-01	9.774259174128626e-01	-8.334161201033764e-02	2.528083604660792e+00	7.816558662259463e-01	9.323979376878647e-01	-4.873752986027985e-01	1.024183845110376e+00	
73	1.534900069240000e-01	-5.245798729553083e-02	8.434951696331894e-01	9.766914621033779e-01	-9.296673800722012e-02	2.541693289220030e+00	7.884438743655371e-01	9.347343088027495e-01	-4.722234947197833e-01	1.016775872144644e+00	
74	1.422899961470000e-01	-5.133147048280202e-02	8.493285223007960e-01	9.757317761885171e-01	-1.032650394355830e-01	2.557048503309779e+00	7.961188626853003e-01	9.373509093143925e-01	-4.550918243631690e-01	1.008459132786849e+00	
75	1.314399987460000e-01	-5.012044187389011e-02	8.556821476020908e-01	9.744066160883795e-01	-1.142884308746525e-01	2.573732402841065e+00	8.045192132077282e-01	9.402080146959497e-01	-4.363410419470352e-01	9.993524832385137e-01	
76	1.209499984980000e-01	-4.882464977952491e-02	8.626209486624703e-01	9.727359109011748e-01	-1.261479767498175e-01	2.591940802791132e+00	8.137053498198176e-01	9.432942140826764e-01	-4.158362727236215e-01	9.894843457837591e-01	
77	1.108499988910000e-01	-4.744688104147633e-02	8.703232469034869e-01	9.706250225358166e-01	-1.389104158073444e-01	2.612133198464925e+00	8.239217941216133e-01	9.466848059649507e-01	-3.930317095499704e-01	9.786035683399785e-01	
78	1.011300012470000e-01	-4.598495736704333e-02	8.788462409349034e-01	9.678432631518225e-01	-1.526516783101067e-01	2.634412476920371e+00	8.352914803397479e-01	9.504409775379793e-01	-3.676529456702057e-01	9.664988729364568e-01	
79	9.181000292300000e-02	-4.444099084828979e-02	8.882291644165284e-01	9.642359016470625e-01	-1.674959692867632e-01	2.658867361814301e+00	8.478805802055661e-01	9.545741281334003e-01	-3.395522763268614e-01	9.531140002304380e-01	
80	8.290000259900000e-02	-4.281609843950412e-02	8.985838776794853e-01	9.597126125758941e-01	-1.835618184623977e-01	2.685805785503835e+00	8.618227883030697e-01	9.590899744703325e-01	-3.084312761092194e-01	9.384064416129559e-01	
81	7.440000027400000e-02	-4.110963414113891e-02	9.099692875110703e-01	9.539815186828874e-01	-2.009616387478842e-01	2.715342260492273e+00	8.772361574834810e-01	9.640283133982246e-01	-2.740264341886584e-01	9.222161397452125e-01	
82	6.633000075800000e-02	-3.932513576990133e-02	9.225368663609153e-01	9.467792232038715e-01	-2.198511241458774e-01	2.747861302850455e+00	8.943341880842587e-01	9.694292127447373e-01	-2.358611873119226e-01	9.043717749027251e-01	
83	5.869000032500000e-02	-3.746230095872190e-02	9.364044319000687e-01	9.376886684115039e-01	-2.403650628779503e-01	2.783628360044298e+00	9.133165795082621e-01	9.753441444686901e-01	-1.934897778833436e-01	8.846502016543571e-01	
84	5.149000138000000e-02	-3.552314723295350e-02	9.517620537006473e-01	9.261944199232509e-01	-2.626240951537074e-01	2.823095216003943e+00	9.344819464086760e-01	9.818440888405012e-01	-1.462456553377768e-01	8.627423275611258e-01	
85	4.473999887700000e-02	-3.351019569165792e-02	9.688869012052664e-01	9.115679511468839e-01	-2.867463617192560e-01	2.866919424704103e+00	9.582670058850610e-01	9.890390763803346e-01	-9.315400472084605e-02	8.381741720149418e-01	
86	3.844000026600000e-02	-3.142313471555851e-02	9.880071794113476e-01	8.928772498364876e-01	-3.128028406350039e-01	2.915615527085522e+00	9.850581751524877e-01	9.970151995650308e-01	-3.335228760605419e-02	8.105033287755111e-01	
