"PointID"	"x"	"y"	"Conservative_1"	"Conservative_2"	"Conservative_3"	"Conservative_4"	"Pressure"	"Temperature"	"C<sub>p</sub>"	"Mach"
0	9.997500181200000e-01	-3.633247769288537e-05	1.198127524910405e+00	7.245314356192153e-01	1.006601604702511e-01	3.442538234049193e+00	1.287696208967757e+00	1.074757220909394e+00	6.421790378744582e-01	4.977215072668704e-01	
1	9.990000128750000e-01	-1.454754719884791e-04	1.179351495061512e+00	7.489238620064588e-01	1.072908860296554e-01	3.395125899853908e+00	1.260980353636472e+00	1.069215038024523e+00	5.825454322242681e-01	5.243356094216667e-01	
2	9.977599978450000e-01	-3.275417515399469e-04	1.169219791575379e+00	7.663225683821751e-01	1.132963134863972e-01	3.370538121555395e+00	1.245567938375567e+00	1.065298370204047e+00	5.481427195883185e-01	5.425141384488308e-01	
3	9.960200190539999e-01	-5.901118191846986e-04	1.162999282361826e+00	7.766729133946123e-01	1.201800031821768e-01	3.355547508343906e+00	1.235999841050310e+00	1.062769220751568e+00	5.267853594872989e-01	5.540043985686366e-01	
4	9.937800168990000e-01	-9.477568349464471e-04	1.158630984117781e+00	7.821900849416117e-01	1.306727685670170e-01	3.344899853549823e+00	1.229401356323088e+00	1.061081028537480e+00	5.120565989354635e-01	5.615730109131547e-01	
5	9.910500049590000e-01	-1.423905110448359e-03	1.154300577858335e+00	7.866624325845053e-01	1.454450736876749e-01	3.334352109068696e+00	1.222852559487967e+00	1.059388328260930e+00	4.974387488570690e-01	5.690845138263629e-01	
6	9.878399968150000e-01	-2.049562027829026e-03	1.147464336871079e+00	7.922689594912209e-01	1.641274226701288e-01	3.317367821551618e+00	1.212847213876335e+00	1.056980312942487e+00	4.751053881168199e-01	5.796430017634285e-01	
7	9.841300249100000e-01	-2.861424336115422e-03	1.136481914365075e+00	8.018403503487251e-01	1.847658034475863e-01	3.290007842574301e+00	1.196848341689352e+00	1.053116927389032e+00	4.393936198423042e-01	5.962895325350710e-01	
8	9.799500107769999e-01	-3.871860014095183e-03	1.120106805726443e+00	8.168717137416740e-01	2.041540252019577e-01	3.249138932060904e+00	1.173067954734205e+00	1.047282231245273e+00	3.863123989602783e-01	6.208047237381518e-01	
9	9.752799868580000e-01	-5.077649738807614e-03	1.098429843951804e+00	8.374034079637802e-01	2.183038544795284e-01	3.194988728368652e+00	1.141637025729727e+00	1.039335404091423e+00	3.161540752895688e-01	6.531275665948670e-01	
10	9.701499938960000e-01	-6.430994027081191e-03	1.072705890909843e+00	8.616848520805113e-01	2.239790911999605e-01	3.130611003406473e+00	1.104456004875374e+00	1.029598153822574e+00	2.331607251682465e-01	6.913006137539388e-01	
11	9.645400047300000e-01	-7.872118687450299e-03	1.045590892133988e+00	8.863198078185924e-01	2.195762176487584e-01	3.062500468818775e+00	1.065515914402897e+00	1.019056231666521e+00	1.462408803636097e-01	7.311389920380152e-01	
12	9.584699869160000e-01	-9.324303888844213e-03	1.021601799551053e+00	9.075912226610017e-01	2.060732108629969e-01	3.002058136002104e+00	1.031248769299635e+00	1.009442984294685e+00	6.975171718668588e-02	7.663365089353300e-01	
13	9.519400000570000e-01	-1.073119739764228e-02	1.004909195762787e+00	9.230894556891847e-01	1.873573015609754e-01	2.959983343281030e+00	1.007420786201596e+00	1.002499320783808e+00	1.656425491427784e-02	7.911833267883444e-01	
14	9.449599981310000e-01	-1.206448780128845e-02	9.966925489825480e-01	9.322242936823407e-01	1.682719668252038e-01	2.939308359826431e+00	9.956562631709517e-01	9.989602753500526e-01	-9.695841136268564e-03	8.036805004542872e-01	
15	9.375399947170000e-01	-1.332889293720794e-02	9.950200776446562e-01	9.360058806973470e-01	1.525697170825726e-01	2.935099164106648e+00	9.932625039597239e-01	9.982336299292649e-01	-1.503905366133051e-02	8.062333252537405e-01	
16	9.296900033950000e-01	-1.455254034015747e-02	9.966143695569738e-01	9.365244098146135e-01	1.419202964760224e-01	2.939078164902283e+00	9.955778033303682e-01	9.989599124212244e-01	-9.870974708999641e-03	8.036817760140624e-01	
17	9.214000105860000e-01	-1.577469888323062e-02	9.985391508049261e-01	9.359151059933773e-01	1.360731527089985e-01	2.943862399844527e+00	9.983926477237647e-01	9.998532825868238e-01	-3.587839902310980e-03	8.005371783340564e-01	
18	9.126999974250000e-01	-1.702359875508167e-02	9.989874828579752e-01	9.356644432995204e-01	1.336412452445191e-01	2.944908388739283e+00	9.991166835975208e-01	1.000129331690099e+00	-1.971688398391036e-03	7.995641441371004e-01	
19	9.035800099370001e-01	-1.832095646405380e-02	9.973482007003095e-01	9.363955562475357e-01	1.329486242462690e-01	2.940665156159956e+00	9.968879929350039e-01	9.995385686112611e-01	-6.946444341509258e-03	8.016457134598981e-01	
20	8.940600156780000e-01	-1.967086677477455e-02	9.938567588716668e-01	9.381649513799052e-01	1.326667353823308e-01	2.931735348241761e+00	9.920335097520820e-01	9.981654809877689e-01	-1.778234430338830e-02	8.064725183148935e-01	
21	8.841500282290000e-01	-2.106891874001049e-02	9.890928956136668e-01	9.406681810135969e-01	1.320122383361439e-01	2.919576968163792e+00	9.853840500898058e-01	9.962502556227950e-01	-3.262488819239780e-02	8.131792172533175e-01	
22	8.738499879840000e-01	-2.250695496556599e-02	9.836642773084645e-01	9.435221039344258e-01	1.306912072618285e-01	2.905717925943181e+00	9.778107848464236e-01	9.940492985289074e-01	-4.952949811066164e-02	8.208503037526115e-01	
23	8.631799817090000e-01	-2.397290316291288e-02	9.780597469548467e-01	9.464267342184658e-01	1.287305746671135e-01	2.891395658509666e+00	9.700062399844477e-01	9.917658333292285e-01	-6.695035717757214e-02	8.287693898528219e-01	
24	8.521599769590000e-01	-2.545616210741541e-02	9.725705313697871e-01	9.491911542411271e-01	1.263036774734885e-01	2.877346868284817e+00	9.623834833699271e-01	9.895256460366817e-01	-8.396543890641278e-02	8.365005569712093e-01	
25	8.407700061800000e-01	-2.695367370041735e-02	9.673141180093183e-01	9.517450324281496e-01	1.236171744585488e-01	2.863873380369071e+00	9.551045327401849e-01	9.873778485790533e-01	-1.002130965620872e-01	8.438788703990594e-01	
26	8.290500044819999e-01	-2.845644930886238e-02	9.622852547928732e-01	9.540832271698145e-01	1.208126552807240e-01	2.850962584938005e+00	9.481612630224150e-01	9.853224480993443e-01	-1.157114664678237e-01	8.509096061653239e-01	
27	8.170099854470000e-01	-2.996097417485323e-02	9.574358527786067e-01	9.562473301060731e-01	1.179857316643922e-01	2.838498753420773e+00	9.414795459964190e-01	9.833343333280448e-01	-1.306260134008504e-01	8.576829780738550e-01	
28	8.046399950980000e-01	-3.146683947477781e-02	9.526971475688126e-01	9.582518317040030e-01	1.151677147115413e-01	2.826301426527901e+00	9.349683580632219e-01	9.813909493160207e-01	-1.451599150374512e-01	8.642788684742732e-01	
29	7.919700145720000e-01	-3.296890225207228e-02	9.480296160122396e-01	9.601315814075978e-01	1.123506823732923e-01	2.814273428623758e+00	9.285688362462370e-01	9.794723925947993e-01	-1.594445619503639e-01	8.707668714964799e-01	
30	7.790099978450000e-01	-3.446445015462885e-02	9.434082170886084e-01	9.619238624382420e-01	1.095246906269038e-01	2.802357503760439e+00	9.222393739530935e-01	9.775613114746419e-01	-1.735728259975591e-01	8.772069263832197e-01	
31	7.657799720760000e-01	-3.594944109339957e-02	9.387845204640587e-01	9.636251633170713e-01	1.066691507049649e-01	2.790422207415053e+00	9.159202119237384e-01	9.756447746613697e-01	-1.876780983845125e-01	8.836432904469409e-01	
32	7.522799968720000e-01	-3.742189806032744e-02	9.341198072504997e-01	9.652513044274839e-01	1.037702146782935e-01	2.778368308383905e+00	9.095577176010745e-01	9.737056323409720e-01	-2.018800946404587e-01	8.901337105159262e-01	
33	7.385200262070000e-01	-3.887853747522318e-02	9.294199012609125e-01	9.668030728622381e-01	1.008180187142302e-01	2.766211353339320e+00	9.031593374507124e-01	9.717452103461814e-01	-2.161621931903741e-01	8.966736434076600e-01	
34	7.245299816130000e-01	-4.031398308069363e-02	9.247220095661011e-01	9.682718410345281e-01	9.779537237220139e-02	2.754047384691637e+00	8.967759236037580e-01	9.697789328325215e-01	-2.304108848130401e-01	9.032118155437246e-01	
35	7.103199958800001e-01	-4.172504411034293e-02	9.200611272493013e-01	9.696440822165645e-01	9.471101055652860e-02	2.741965551110449e+00	8.904564900411577e-01	9.678231844261781e-01	-2.445167633009873e-01	9.096944348799809e-01	
36	6.958900094030001e-01	-4.310953423657619e-02	9.154523585706983e-01	9.709357570251498e-01	9.155466575967851e-02	2.730010125129195e+00	8.842163935585921e-01	9.658792019926903e-01	-2.584455500924285e-01	9.161183359071576e-01	
37	6.812700033190000e-01	-4.446247417629211e-02	9.108937645348959e-01	9.721255808432653e-01	8.833502170793595e-02	2.718169331734539e+00	8.780597529956525e-01	9.639540714651744e-01	-2.721880513489899e-01	9.224611221308564e-01	
38	6.664699912070000e-01	-4.578099563762238e-02	9.063824928600769e-01	9.732284596359825e-01	8.505199180700367e-02	2.706439678159029e+00	8.719788035854513e-01	9.620428576835536e-01	-2.857615991396176e-01	9.287400632928297e-01	
39	6.514999866490000e-01	-4.706233399464359e-02	9.018977015790516e-01	9.742607096041529e-01	8.171373761099426e-02	2.694770751045922e+00	8.659416741548326e-01	9.601329204395725e-01	-2.992373344758201e-01	9.349974094741011e-01	
40	6.363800168040000e-01	-4.830302658380101e-02	8.974078595005680e-01	9.752057061783385e-01	7.833410525211820e-02	2.683073978488350e+00	8.599124488552404e-01	9.582180942050199e-01	-3.126954266624097e-01	9.412538052944371e-01	
41	6.211299896240000e-01	-4.949986719736910e-02	8.929350454698042e-01	9.760822487042081e-01	7.490677968235092e-02	2.671413421473362e+00	8.539142387585911e-01	9.563005093044783e-01	-3.260842884852878e-01	9.475026778138750e-01	
42	6.057599782940000e-01	-5.065061113569270e-02	8.885498209210017e-01	9.768597469230051e-01	7.142440000467158e-02	2.659965898507649e+00	8.480487974371788e-01	9.544189616268872e-01	-3.391767914348688e-01	9.536184827566333e-01	
43	5.902799963950000e-01	-5.175311080536412e-02	8.843164934690385e-01	9.775671040620342e-01	6.785912336798086e-02	2.648909324508571e+00	8.423920925762137e-01	9.525911806435255e-01	-3.518033647852372e-01	9.595451094345704e-01	
44	5.747100114820000e-01	-5.280464476180879e-02	8.801471510967988e-01	9.782193356870591e-01	6.424257583999317e-02	2.638016044852791e+00	8.368247130034852e-01	9.507781874436259e-01	-3.642305513315063e-01	9.654101529060862e-01	
45	5.590599775310000e-01	-5.380332616698476e-02	8.758197177629543e-01	9.788483645556459e-01	6.065741712743819e-02	2.626711105000275e+00	8.310448464215691e-01	9.488766118947968e-01	-3.771320392375691e-01	9.715475740851506e-01	
46	5.433599948880000e-01	-5.474614665623681e-02	8.713432192024716e-01	9.793663227469173e-01	5.717586505838218e-02	2.614992330193666e+00	8.250903013798887e-01	9.469176820301449e-01	-3.904234344198913e-01	9.778553566042608e-01	
47	5.276100039480000e-01	-5.563207677064962e-02	8.676003337780411e-01	9.796691122902500e-01	5.371786597170716e-02	2.605152589282844e+00	8.201530577601476e-01	9.453120588240440e-01	-4.014440674996706e-01	9.830146453591447e-01	
48	5.118399858470000e-01	-5.645843428566019e-02	8.662057077255234e-01	9.796158733913003e-01	5.001432953314621e-02	2.601394359809784e+00	8.184052727550837e-01	9.448163010886254e-01	-4.053453733145453e-01	9.846057082089417e-01	
49	4.960500001910000e-01	-5.722423968239146e-02	8.682536733918159e-01	9.792737145010568e-01	4.572496586290228e-02	2.606617528703060e+00	8.212675207014222e-01	9.458843030207484e-01	-3.989564270057541e-01	9.811769847501510e-01	
50	4.802699983120000e-01	-5.792706693908310e-02	8.720303467329086e-01	9.789366285586868e-01	4.072761709139790e-02	2.616404060957729e+00	8.263913825734174e-01	9.476635597253250e-01	-3.875192353271933e-01	9.754553704719880e-01	
51	4.645099937920000e-01	-5.856554256019680e-02	8.714399600817191e-01	9.792599247189183e-01	3.567246667681494e-02	2.614886169991442e+00	8.255784079065011e-01	9.473726770907807e-01	-3.893339109229887e-01	9.763915867228158e-01	
52	4.487800002100000e-01	-5.913824557456872e-02	8.585161498390079e-01	9.804826343826449e-01	3.177631745112982e-02	2.581165439482443e+00	8.082756510469602e-01	9.414798442621389e-01	-4.279561360558924e-01	9.952905098018968e-01	
53	4.331099987030000e-01	-5.964309125730125e-02	8.313154142713864e-01	9.812450884135167e-01	3.000404788342400e-02	2.509936812181414e+00	7.721151563188605e-01	9.287872485747034e-01	-5.086715260739720e-01	1.035600990728429e+00	
54	4.174999892710000e-01	-6.007903668778203e-02	8.027202052011273e-01	9.789005544525178e-01	2.733476587061893e-02	2.434352400860541e+00	7.348050325529466e-01	9.153937172527457e-01	-5.919530523371728e-01	1.077644836004426e+00	
55	4.019699990750000e-01	-6.044435872601640e-02	7.870073907604254e-01	9.756989234900524e-01	2.225982726942494e-02	2.392267827644131e+00	7.148550486015018e-01	9.083206295061498e-01	-6.364842665145048e-01	1.099680190178354e+00	
56	3.865399956700000e-01	-6.073742814031158e-02	7.837061279389398e-01	9.744690677338032e-01	1.682620747807638e-02	2.383210597661747e+00	7.108788140296427e-01	9.070731855819162e-01	-6.453597901124047e-01	1.103555974229533e+00	
57	3.712300062180000e-01	-6.095671410455835e-02	7.856378874528416e-01	9.745203710236804e-01	1.169083154348887e-02	2.388224017691530e+00	7.134920450568386e-01	9.081690896681286e-01	-6.395266851409853e-01	1.100151196608119e+00	
58	3.560400009160000e-01	-6.110093905415660e-02	7.880108695696240e-01	9.749170454652232e-01	6.828693639556580e-03	2.394519630262954e+00	7.165650182050376e-01	9.093339265693040e-01	-6.326673700780411e-01	1.096529686202395e+00	
59	3.409900069240000e-01	-6.116850778476407e-02	7.896548673335073e-01	9.753419514192873e-01	1.953674240376819e-03	2.398939161036323e+00	7.186360391694548e-01	9.100634579713699e-01	-6.280445554253240e-01	1.094260198864715e+00	
60	3.261100053790000e-01	-6.115798687973470e-02	7.910688968822337e-01	9.756574899413929e-01	-3.150642513327584e-03	2.402731396133877e+00	7.204264248263308e-01	9.106999752685015e-01	-6.240481588697974e-01	1.092279185360396e+00	
61	3.113999962810000e-01	-6.106804793975660e-02	7.928356857418298e-01	9.759686288691481e-01	-8.528682109952088e-03	2.407451417780744e+00	7.226817208100011e-01	9.115151270389806e-01	-6.190140160491046e-01	1.089741003140157e+00	
62	2.968699932100000e-01	-6.089724302674786e-02	7.951149662927742e-01	9.763081712693398e-01	-1.416850606514066e-02	2.413529092932216e+00	7.256026957574001e-01	9.125758242742240e-01	-6.124939826843748e-01	1.086436196752083e+00	
63	2.825500071050000e-01	-6.064449606808621e-02	7.978481143549209e-01	9.766655898258368e-01	-2.006701786018680e-02	2.420810965935531e+00	7.291113476049954e-01	9.138473031229752e-01	-6.046621705245638e-01	1.082471521951359e+00	
64	2.684499919410000e-01	-6.030866014840262e-02	8.009643439668659e-01	9.770268866518330e-01	-2.624313763868516e-02	2.429110919304320e+00	7.331143390858428e-01	9.152896063450363e-01	-5.957269216833867e-01	1.077969957589012e+00	
65	2.545700073240000e-01	-5.988826451676584e-02	8.044337045850662e-01	9.773496298960644e-01	-3.273037215581508e-02	2.438339718645367e+00	7.375826528860843e-01	9.168967544274340e-01	-5.857530069507048e-01	1.072948444197108e+00	
66	2.409400045870000e-01	-5.938279727829122e-02	8.082885883114195e-01	9.776424262198291e-01	-3.956377777186473e-02	2.448589111541017e+00	7.425524274336530e-01	9.186724125165562e-01	-5.746597601927388e-01	1.067393538857182e+00	
67	2.275699973110000e-01	-5.879138765924714e-02	8.124926701259756e-01	9.778587318960897e-01	-4.676093079154466e-02	2.459752797823123e+00	7.479865516672871e-01	9.206071379712425e-01	-5.625300185998056e-01	1.061332513789857e+00	
68	2.144699990750000e-01	-5.811323181440627e-02	8.169689486341380e-01	9.779893161440660e-01	-5.433962521613264e-02	2.471631326425240e+00	7.537804711204480e-01	9.226549826412221e-01	-5.495971626775714e-01	1.054907114882785e+00	
69	2.016600072380000e-01	-5.734824251650480e-02	8.216230201066992e-01	9.779832852334908e-01	-6.232288875119326e-02	2.483965460440837e+00	7.598207162775231e-01	9.247802187660833e-01	-5.361144725948145e-01	1.048227617306404e+00	
70	1.891400069000000e-01	-5.649531659971777e-02	8.264785904742535e-01	9.778390531352175e-01	-7.074504933710009e-02	2.496822222089790e+00	7.661338556625717e-01	9.269857253325168e-01	-5.220226436103309e-01	1.041283233268704e+00	
71	1.769299954180000e-01	-5.555474722572183e-02	8.317085047736089e-01	9.775163326787122e-01	-7.967026295997520e-02	2.510648156598910e+00	7.729557408087812e-01	9.293589477231328e-01	-5.067952214089706e-01	1.033795871561628e+00	
72	1.650400012730000e-01	-5.452641202755490e-02	8.375594027459420e-01	9.770018986264382e-01	-8.915828112349558e-02	2.526095356227219e+00	7.806080179989265e-01	9.320031694942473e-01	-4.897142455381104e-01	1.025434574848884e+00	
73	1.534900069240000e-01	-5.341135137424788e-02	8.441110995635419e-01	9.762202956111958e-01	-9.923888259704543e-02	2.543360103733909e+00	7.892095170499975e-01	9.349592932234492e-01	-4.705144708705412e-01	1.016062292242034e+00	
74	1.422899961470000e-01	-5.221007529697202e-02	8.512850673828585e-01	9.751425655462247e-01	-1.099453712766851e-01	2.562240486391848e+00	7.986521208140138e-01	9.381723601347124e-01	-4.494372303258620e-01	1.005844315219195e+00	
75	1.314399987460000e-01	-5.092206032043683e-02	8.589270501892790e-01	9.736312638611229e-01	-1.213233264802799e-01	2.582301004485361e+00	8.087623228737267e-01	9.415960560276949e-01	-4.268698150140028e-01	9.949190049477178e-01	
76	1.209499984980000e-01	-4.954786624823768e-02	8.670835770015038e-01	9.716985482831422e-01	-1.334737019015450e-01	2.603687003006334e+00	8.195784757844822e-01	9.452127770874167e-01	-4.027266165524951e-01	9.833333473217083e-01	
77	1.108499988910000e-01	-4.809125770819091e-02	8.759274574089756e-01	9.692505401835330e-01	-1.464545989761880e-01	2.626844310224489e+00	8.313370074939922e-01	9.490934442826084e-01	-3.764798939866246e-01	9.708484649570079e-01	
78	1.011300012470000e-01	-4.655072700725078e-02	8.855196813295102e-01	9.660541333753346e-01	-1.603325357288590e-01	2.651885844141217e+00	8.441657895205420e-01	9.532998614475968e-01	-3.478442198202187e-01	9.572488545647254e-01	
79	9.181000292300000e-02	-4.492928134692021e-02	8.959010844752242e-01	9.619449444334806e-01	-1.752181345558760e-01	2.678902054286833e+00	8.581355926653955e-01	9.578463599785130e-01	-3.166616235147421e-01	9.424664621228589e-01	
80	8.290000259900000e-02	-4.322884150344102e-02	9.071840206028666e-01	9.568318289675234e-01	-1.912172977909625e-01	2.708202342716648e+00	8.733805900176921e-01	9.627380665692167e-01	-2.826326115676516e-01	9.264581256098379e-01	
81	7.440000027400000e-02	-4.144945806916516e-02	9.194248607970422e-01	9.504231582195491e-01	-2.084264403425546e-01	2.739895061936108e+00	8.900149834054801e-01	9.680127450914622e-01	-2.455022691841962e-01	9.090669866320310e-01	
82	6.633000075800000e-02	-3.959551001705077e-02	9.327691795569854e-01	9.424499280492864e-01	-2.269818238959181e-01	2.774347702448649e+00	9.082460137008976e-01	9.737092880065626e-01	-2.048080051319249e-01	8.901214939376633e-01	
83	5.869000032500000e-02	-3.766733240636825e-02	9.473318721045690e-01	9.325026588336293e-01	-2.469987393094445e-01	2.811820509087602e+00	9.282670450159577e-01	9.798752394488141e-01	-1.601182030893802e-01	8.694064713864861e-01	
84	5.149000138000000e-02	-3.566762844804702e-02	9.632925880575223e-01	9.200722139801393e-01	-2.685676468518148e-01	2.852738892722174e+00	9.503619271901249e-01	9.865766008918726e-01	-1.107992696648998e-01	8.466230855679067e-01	
85	4.473999887700000e-02	-3.359955960401077e-02	9.809120998739959e-01	9.044302797702736e-01	-2.917747323862821e-01	2.897716588201621e+00	9.749464609387405e-01	9.939182736801581e-01	-5.592307826173998e-02	8.213057734725235e-01	
86	3.844000026600000e-02	-3.146332399337093e-02	1.000405342957776e+00	8.846587760887172e-01	-3.166572660596570e-01	2.947235614665197e+00	1.002387196903541e+00	1.001981050940718e+00	5.328564516831970e-03	7.930202108500115e-01	
